-0.006853
-0.009457
-0.004999
0.003039
-0.020055
0.010130
-0.000334
0.016757
0.016214
0.047777
0.012547
0.068760
0.008901
0.005046
0.018956
0.043868
0.048651
0.048927
0.050621
0.048593
0.068538
0.096559
0.080492
0.098444
0.114933
0.107238
0.130852
0.117129
0.132590
0.136016
0.148185
0.131590
0.143201
0.140141
0.165979
0.134510
0.156754
0.125871
0.126144
0.089042
0.114892
0.092971
0.087908
0.117632
0.064825
0.066031
0.027373
0.060374
0.042338
0.019679
0.029694
-0.009199
0.013369
0.024595
0.003002
-0.013814
0.001015
-0.019731
-0.041879
-0.045761
-0.056091
-0.025800
-0.030973
-0.048260
-0.055558
-0.059895
-0.044963
-0.052463
-0.038336
-0.033597
-0.070195
-0.011956
-0.008523
-0.025166
0.030734
0.028243
0.053887
0.072978
0.114661
0.151385
0.180853
0.247020
0.289157
0.317624
0.393348
0.447470
0.512949
0.562997
0.623295
0.705813
0.722468
0.793284
0.832614
0.895656
0.936023
0.925138
0.963948
1.032131
1.014300
0.999870
1.007677
0.979366
0.928072
0.920505
0.900953
0.855885
0.809899
0.744575
0.722532
0.644895
0.576833
0.532533
0.475985
0.398866
0.373335
0.339258
0.286056
0.211840
0.202649
0.185487
0.159477
0.115243
0.160065
0.138396
0.147112
0.149080
0.171981
0.185916
0.199199
0.253906
0.289115
0.317826
0.380476
0.387381
0.471296
0.533170
0.552657
0.564470
0.640179
0.691099
0.727297
0.752015
0.786822
0.813237
0.829209
0.875356
0.902017
0.906686
0.925628
0.936584
0.949264
0.966962
0.922481
0.951895
0.904843
0.895182
0.886030
0.870505
0.851366
0.826331
0.799665
0.776785
0.708311
0.661554
0.661441
0.648814
0.625363
0.584129
0.563890
0.534550
0.508312
0.475885
0.436321
0.420541
0.402149
0.365756
0.364291
0.347260
0.313272
0.303031
0.275916
0.264106
0.260833
0.257025
0.230105
0.212900
0.190577
0.227824
0.194792
0.193371
0.170224
0.160686
0.161031
0.166959
0.166392
0.125768
0.164739
0.158844
0.133081
0.120328
0.124014
0.101786
0.106228
0.108639
0.093596
0.122569
0.108710
0.083251
0.070888
0.083346
0.085619
0.049767
0.054538
0.034233
0.061941
0.053031
0.042413
0.066442
0.051141
0.039974
0.055477
0.032382
0.054533
0.041682
0.075959
0.025408
0.044714
0.053131
0.017081
0.027676
0.016497
-0.018064
0.050922
0.043409
0.026288
0.014759
0.001990
0.016145
0.033794
0.018985
0.002426
0.011857
0.020176
0.011992
-0.001276
0.042904
-0.002693
0.007950
0.026660
0.011927
-0.012616
0.031046
-0.008094
-0.013960
0.010795
-0.005384
0.010413
0.012454
0.008051
-0.007846
-0.016368
0.010679
0.014486
0.023274
0.014588
0.007247
-0.004976
-0.004482
0.014276
0.002422
0.020254
0.008930
0.012074
-0.009415
0.004979
0.001020
-0.012713
0.024794
-0.020863
0.001934
-0.003455
0.000797
-0.007042
0.022233
0.012380
0.012296
-0.009892
-0.004512
0.023504
0.010631
-0.023422
0.021483
0.011902
0.008715
0.001520
-0.017538
0.009021
-0.002467
0.008405
-0.003466
-0.018024
0.004762
0.011134
0.003203
0.007467
0.010229
0.002824
0.000298
-0.015025
0.030377
0.004504
-0.002829
-0.029740
-0.013034
0.002001
0.019579
-0.016261
-0.004266
-0.016682
-0.006985
0.000426
-0.009690
0.011279
-0.002400
0.006529
-0.024178
0.010273
-0.014208
-0.009332
0.024833
-0.009633
0.015466
0.002232
0.026401
0.030831
0.038416
0.067971
0.049958
0.045519
0.081371
0.080910
0.073980
0.077505
0.088408
0.127549
0.129991
0.133035
0.137270
0.130028
0.153314
0.130607
0.157247
0.181697
0.145606
0.145716
0.134363
0.149188
0.157754
0.137853
0.113864
0.119616
0.101177
0.086765
0.093690
0.084807
0.065795
0.060078
0.065294
0.027185
0.039097
0.013418
0.019167
0.013503
0.011786
-0.026481
0.009967
-0.003287
-0.023324
-0.020042
-0.009769
-0.027137
-0.013471
-0.014274
-0.038217
-0.068033
-0.081885
-0.070433
-0.039826
-0.034162
-0.056784
-0.036783
-0.046153
-0.009343
-0.003420
0.004716
0.031966
0.033164
0.099501
0.126388
0.135419
0.182870
0.228654
0.272844
0.320759
0.389413
0.441186
0.527398
0.590109
0.654499
0.708859
0.736151
0.811947
0.826477
0.868082
0.919594
0.971740
0.953050
1.003918
1.018803
1.004936
1.005292
1.001061
0.959716
0.920669
0.884069
0.832359
0.810014
0.747115
0.721249
0.631428
0.556233
0.516007
0.451656
0.386280
0.331421
0.307287
0.249816
0.225044
0.197195
0.153263
0.160239
0.132479
0.108976
0.140785
0.143892
0.139141
0.170839
0.191705
0.210775
0.236725
0.296176
0.337106
0.381865
0.404705
0.459455
0.484123
0.549135
0.594782
0.607595
0.644675
0.697865
0.736817
0.782810
0.797790
0.852539
0.883488
0.912487
0.908984
0.900775
0.924725
0.931136
0.934629
0.927619
0.923575
0.952307
0.928348
0.877634
0.871994
0.828548
0.825203
0.784495
0.770992
0.738286
0.699926
0.674184
0.658796
0.615663
0.566159
0.565516
0.542857
0.494491
0.475844
0.441889
0.432205
0.378992
0.374046
0.340162
0.335413
0.312658
0.310782
0.304595
0.283764
0.251427
0.252146
0.245301
0.236108
0.197453
0.207829
0.189842
0.182129
0.183958
0.166982
0.191111
0.173816
0.182385
0.157361
0.131329
0.129138
0.142894
0.145368
0.124866
0.111212
0.140995
0.089195
0.090725
0.092608
0.128762
0.093271
0.096662
0.094923
0.053341
0.074614
0.052821
0.038540
0.053899
0.066879
0.063153
0.043064
0.063924
0.062791
0.034164
0.046954
0.062879
0.021977
0.064720
0.027686
0.050088
0.009603
0.016176
0.034568
0.007488
0.008420
0.011132
0.011879
0.008600
0.028224
0.015390
0.013562
0.008308
-0.006009
0.019921
0.012676
0.017917
0.032278
0.023268
0.007845
-0.010642
-0.018705
0.009660
0.003073
0.015955
-0.022023
-0.027274
0.013542
0.007700
0.003215
-0.024781
0.012647
-0.008991
0.004214
0.015544
-0.006047
0.015656
-0.000269
0.002337
0.004237
0.020178
0.017375
-0.004022
0.000327
0.001382
-0.012559
0.022492
-0.005208
0.023570
0.011747
-0.003860
0.018381
0.002899
0.004032
-0.016433
0.003624
0.004002
0.000387
0.011910
-0.008687
-0.006958
-0.005958
0.009516
-0.000308
0.010276
0.002495
0.030998
-0.016452
0.039824
0.007516
0.029176
0.010115
0.009888
0.019542
0.016580
0.015676
0.012768
0.002255
-0.010602
-0.006773
0.002144
0.024539
0.005877
0.002984
-0.006245
-0.014649
0.015503
-0.007920
0.015116
-0.003134
-0.007954
0.021919
-0.001399
0.003127
0.028264
-0.014665
0.000924
0.012664
0.008214
0.001894
0.025687
-0.020286
0.006836
-0.007328
-0.002952
0.024362
0.029284
0.034014
0.039477
0.026418
0.058934
0.070200
0.044453
0.063418
0.076011
0.077580
0.123368
0.111132
0.105257
0.101405
0.129358
0.133856
0.128491
0.152647
0.162972
0.177266
0.147446
0.173744
0.148123
0.160431
0.136468
0.109157
0.109837
0.116293
0.115316
0.106727
0.092278
0.077758
0.050684
0.075201
0.041277
0.022900
0.039862
0.011336
0.012767
0.012737
0.004955
0.008552
0.003761
-0.003879
-0.006747
-0.031643
-0.037434
-0.036317
-0.034941
-0.049933
-0.032901
-0.066089
-0.086739
-0.048679
-0.043064
-0.055162
-0.054719
-0.002150
-0.028706
-0.026934
0.000697
-0.021149
0.018463
0.054804
0.070760
0.072478
0.115303
0.147966
0.148808
0.277772
0.300662
0.367010
0.419727
0.438728
0.510362
0.564220
0.624183
0.658811
0.754102
0.785249
0.834706
0.889784
0.924496
0.943664
0.997700
0.984779
1.020319
0.997550
0.983527
0.998372
0.961254
0.925092
0.903242
0.855950
0.791347
0.731504
0.717259
0.653655
0.557391
0.493599
0.466344
0.436087
0.349204
0.316586
0.255942
0.208311
0.197734
0.177846
0.162308
0.161985
0.135870
0.162943
0.128577
0.170861
0.159286
0.198429
0.200469
0.259254
0.305780
0.358146
0.366775
0.406146
0.462397
0.507965
0.563247
0.582827
0.630571
0.664582
0.713862
0.751574
0.767190
0.820617
0.835353
0.849312
0.863172
0.913275
0.943735
0.933427
0.934284
0.930288
0.930472
0.948254
0.920457
0.883384
0.900065
0.861285
0.848276
0.801343
0.810447
0.758373
0.734724
0.703326
0.669277
0.645332
0.624445
0.568113
0.520001
0.515573
0.521340
0.466845
0.432833
0.426338
0.398267
0.382267
0.348912
0.317117
0.331821
0.325066
0.254287
0.263111
0.252389
0.233827
0.255454
0.205900
0.253793
0.192931
0.219703
0.185178
0.179490
0.209614
0.173130
0.165588
0.178114
0.139575
0.132932
0.116932
0.138759
0.124562
0.124960
0.121562
0.096698
0.107050
0.104479
0.109212
0.070798
0.062601
0.092304
0.070529
0.078440
0.091605
0.086946
0.047050
0.052318
0.042418
0.067843
0.055921
0.020752
0.068455
0.052859
-0.001981
0.055188
0.055710
0.040454
0.033040
0.032079
0.009480
0.034771
0.050614
0.034297
0.023845
0.019572
0.025491
0.015506
0.026020
0.002766
0.021969
0.024892
0.000844
0.000605
0.005607
-0.011729
0.021376
0.020792
0.003856
0.004976
-0.004366
-0.000026
0.016452
-0.007771
-0.019135
0.017859
0.001710
0.000002
-0.003382
-0.002455
0.010845
0.010239
-0.015064
0.008712
0.010657
0.023906
0.014687
-0.026095
-0.009653
-0.016487
0.013859
-0.024847
0.025882
0.007710
0.003939
-0.010480
0.009402
-0.028011
0.006427
-0.013913
0.004114
-0.020091
-0.024872
-0.012543
-0.006342
0.007350
-0.006319
-0.000921
0.003774
-0.002390
0.012475
0.003086
0.000507
-0.007160
-0.009099
-0.003686
0.003031
0.008661
-0.000472
-0.002911
-0.000023
0.021326
0.010785
0.006612
0.002222
0.001509
-0.008752
0.001295
-0.019006
0.019598
0.002284
-0.009598
-0.000659
-0.009474
0.000526
-0.010307
0.041625
0.032183
-0.013208
0.013535
0.019699
-0.006126
0.011668
-0.022359
0.007022
-0.001003
0.030763
-0.010593
0.014208
-0.003555
-0.009453
-0.005542
0.025737
0.011893
0.042682
0.014314
0.041729
-0.003324
0.066624
0.052943
0.036051
0.053262
0.053848
0.073899
0.083857
0.122044
0.105540
0.121468
0.101205
0.116699
0.142807
0.135388
0.132459
0.141739
0.130260
0.155376
0.152968
0.145885
0.139116
0.120901
0.111762
0.146735
0.134246
0.128756
0.092754
0.074051
0.064825
0.066780
0.045480
0.045019
0.014885
0.021213
0.030124
0.027137
0.025472
-0.001451
-0.009581
-0.016818
-0.013887
-0.005470
0.008679
-0.032769
-0.021645
-0.012763
-0.044047
-0.021119
-0.068161
-0.023553
-0.039592
-0.054658
-0.034380
-0.055092
-0.031233
-0.036840
-0.023287
-0.032971
0.006777
0.027127
0.028802
0.081346
0.107304
0.111347
0.149616
0.197596
0.231289
0.280233
0.337032
0.402194
0.456448
0.518954
0.572542
0.633551
0.711132
0.741030
0.791666
0.829642
0.893546
0.911127
0.980861
0.971865
0.992338
1.014657
0.990637
1.000429
0.993245
0.991491
0.943184
0.907587
0.846957
0.822114
0.732769
0.683450
0.626726
0.563306
0.537315
0.453347
0.410883
0.351037
0.308882
0.279839
0.230627
0.172542
0.173748
0.168455
0.119758
0.120522
0.129614
0.156382
0.173846
0.158554
0.169907
0.227197
0.262580
0.318312
0.330045
0.366804
0.403715
0.437389
0.494640
0.543516
0.557429
0.637901
0.684179
0.719855
0.717327
0.787065
0.847822
0.856213
0.887862
0.905473
0.908232
0.931153
0.926039
0.951167
0.930903
0.925280
0.947976
0.919373
0.881122
0.893555
0.865878
0.830335
0.843364
0.774186
0.782906
0.739896
0.726393
0.675838
0.640094
0.596001
0.589890
0.557022
0.505481
0.510612
0.453522
0.405416
0.414928
0.417250
0.394697
0.356099
0.369196
0.321912
0.315465
0.286398
0.254358
0.244484
0.249834
0.236888
0.248674
0.210691
0.204872
0.212350
0.196748
0.185368
0.182495
0.170701
0.165143
0.155087
0.182635
0.121994
0.156414
0.118831
0.134049
0.127804
0.122659
0.083403
0.095647
0.090335
0.098418
0.107462
0.070405
0.078943
0.093234
0.056717
0.071761
0.064134
0.075350
0.066843
0.070538
0.048207
0.037516
0.034066
0.065165
0.025400
0.035132
0.052015
0.054440
0.034098
0.028634
0.013762
0.029393
0.015241
0.007435
0.042159
0.020732
0.031061
0.030291
0.005757
0.000004
0.023487
0.014026
0.021723
0.012024
-0.008044
0.018611
0.001069
0.019336
0.013027
0.005330
0.007174
0.014599
0.009192
-0.001584
0.000509
-0.005713
-0.010980
0.001425
0.020160
0.005876
-0.027470
0.020975
-0.006124
-0.005751
0.023309
0.017680
-0.013710
-0.005121
-0.024113
-0.002976
-0.020973
-0.019658
0.019745
0.012583
-0.015685
0.005177
0.004157
0.004075
-0.014301
0.010085
-0.005783
0.011382
-0.022114
-0.004265
-0.001880
-0.000210
-0.012519
0.015603
-0.003531
-0.012239
-0.002273
-0.020934
0.016878
0.029398
-0.000504
-0.001604
-0.008928
0.012316
-0.018408
-0.018791
0.023802
0.037828
-0.000859
-0.002691
0.035461
0.002919
-0.019708
-0.006195
-0.006807
0.007601
0.010626
-0.020872
0.001977
-0.024766
0.014560
-0.020623
-0.009742
0.017647
-0.024465
-0.008785
0.035730
-0.011667
0.003332
0.019222
0.000222
0.017710
-0.020050
0.005907
-0.016355
0.002230
0.010461
0.004329
0.016628
-0.009566
0.026776
0.016816
0.042402
0.027222
0.032425
0.026819
0.040728
0.048058
0.068954
0.055403
0.066379
0.099494
0.107072
0.093295
0.130067
0.086401
0.135412
0.146475
0.120759
0.155258
0.163206
0.142408
0.158418
0.153591
0.131321
0.169498
0.146088
0.148023
0.110943
0.114861
0.103945
0.081237
0.071405
0.071148
0.053794
0.073997
0.088232
0.058127
0.045475
0.066923
0.032359
0.010220
-0.004405
0.000930
-0.000447
-0.026996
-0.004227
-0.002097
-0.003372
-0.035114
-0.015136
-0.005695
-0.056299
-0.028065
-0.059763
-0.058647
-0.073581
-0.060771
-0.036769
-0.046983
-0.039715
-0.011342
-0.003151
-0.026381
-0.001273
0.003870
0.062040
0.112660
0.141407
0.158480
0.180517
0.264177
0.287683
0.356372
0.376103
0.449909
0.506542
0.552854
0.605351
0.692413
0.737578
0.812026
0.795692
0.883019
0.895957
0.955683
0.968537
0.998833
0.994913
1.018793
1.004708
0.972473
0.951758
0.925906
0.879973
0.879327
0.787743
0.758417
0.704494
0.635603
0.556230
0.520640
0.481491
0.399936
0.375810
0.289558
0.272424
0.257917
0.214991
0.193407
0.147262
0.156006
0.136480
0.121155
0.110886
0.158242
0.162142
0.224150
0.232416
0.262322
0.260355
0.317681
0.380168
0.397322
0.445606
0.503457
0.552587
0.598141
0.635487
0.673782
0.717700
0.753874
0.785051
0.818199
0.856319
0.885414
0.867435
0.914081
0.937118
0.923811
0.947719
0.920321
0.950258
0.903065
0.918945
0.895211
0.889350
0.844993
0.840498
0.793524
0.792995
0.766989
0.752588
0.694494
0.660662
0.637042
0.618706
0.569265
0.534063
0.525303
0.489526
0.449250
0.416757
0.408851
0.408108
0.374916
0.384242
0.316478
0.301376
0.331257
0.307187
0.261619
0.276860
0.274046
0.238528
0.238762
0.219125
0.189133
0.203986
0.201167
0.186297
0.156507
0.193815
0.189464
0.172654
0.138389
0.134968
0.170294
0.168404
0.149017
0.145083
0.106794
0.109408
0.120145
0.097768
0.101113
0.109788
0.099533
0.067986
0.090887
0.057997
0.070901
0.060627
0.044049
0.067191
0.059516
0.060081
0.037304
0.027632
0.020405
0.027901
0.032669
0.070199
0.029008
0.053358
0.031402
0.060803
0.028797
0.031317
0.043152
0.004569
0.030167
0.045680
0.001805
0.006526
0.011061
0.033637
0.017219
0.018002
0.032732
0.037838
0.013067
0.007295
0.035345
0.032897
0.022456
0.017733
-0.003328
-0.002310
0.034987
-0.016034
-0.010954
0.009556
0.006016
0.010649
-0.020740
-0.011338
0.031886
-0.000415
0.011990
-0.015369
0.030052
-0.006115
-0.001946
-0.016980
0.014322
0.002345
-0.003313
-0.013955
-0.001518
0.003946
-0.022175
-0.024511
0.005152
0.013606
-0.017906
0.001431
-0.032008
-0.007342
-0.016652
0.009335
-0.002885
-0.020815
0.013723
0.040603
0.002835
-0.008725
0.007758
-0.007531
0.005107
0.005161
0.004617
-0.004635
-0.000261
0.015542
0.010651
0.012537
-0.012997
-0.016549
0.005465
-0.021668
0.013826
0.049218
-0.002687
-0.001982
-0.019998
0.011570
0.001234
0.011598
0.007600
0.009756
0.006671
0.006392
0.026418
-0.014801
0.009367
0.003862
0.038322
-0.005439
-0.002520
-0.004444
-0.009616
-0.008622
0.013433
0.019232
-0.005182
0.004392
-0.017855
-0.005603
0.029422
0.016143
0.038624
0.011769
0.040850
0.023295
0.036286
0.036390
0.082870
0.057606
0.046068
0.072542
0.075546
0.109840
0.119059
0.125058
0.137353
0.145815
0.149593
0.128493
0.133239
0.173329
0.158299
0.139707
0.149916
0.129344
0.142915
0.127198
0.158174
0.120995
0.114526
0.091006
0.084268
0.066910
0.078187
0.072421
0.038971
0.048743
0.053392
0.025436
0.020873
0.023733
0.020994
0.008525
-0.005197
-0.015419
-0.017961
-0.020834
-0.025487
-0.034503
-0.033159
-0.028427
-0.022670
-0.058464
-0.051322
-0.054423
-0.041886
-0.034849
-0.024494
-0.028801
-0.034355
-0.036775
-0.016601
-0.039829
-0.012986
0.023949
0.007373
0.043191
0.030309
0.119652
0.142487
0.190353
0.246766
0.279005
0.348591
0.373647
0.463400
0.527383
0.564332
0.646735
0.686572
0.712991
0.797761
0.864006
0.884070
0.921312
0.953658
0.993696
1.022156
1.031904
1.016273
0.993031
0.964129
0.972168
0.887811
0.885917
0.836906
0.774336
0.742186
0.703592
0.627863
0.577854
0.540786
0.468700
0.400893
0.352400
0.298294
0.255510
0.243141
0.191500
0.167909
0.143641
0.145529
0.147122
0.141131
0.147841
0.151624
0.170431
0.178639
0.222518
0.241368
0.282837
0.319370
0.380649
0.412952
0.458661
0.498159
0.545317
0.603321
0.632863
0.657641
0.701202
0.733841
0.777844
0.801744
0.854356
0.882969
0.899652
0.904916
0.914262
0.937473
0.931649
0.944390
0.930310
0.931421
0.941276
0.878261
0.878656
0.876229
0.823418
0.832651
0.800918
0.753693
0.754400
0.695488
0.667017
0.643578
0.604312
0.583687
0.527323
0.539134
0.498551
0.475905
0.448996
0.413039
0.418691
0.347275
0.372259
0.342519
0.317305
0.321764
0.304895
0.261306
0.287317
0.243565
0.255802
0.248381
0.214666
0.209345
0.184647
0.199643
0.169386
0.181494
0.188037
0.157546
0.156957
0.156145
0.139224
0.146276
0.150786
0.155772
0.115470
0.129769
0.121689
0.103639
0.121617
0.107991
0.077920
0.107831
0.087697
0.066324
0.105928
0.048523
0.076116
0.066896
0.075088
0.057910
0.055647
0.044818
0.062806
0.052409
0.056443
0.006244
0.028787
0.059862
0.039075
0.022977
0.042808
0.011881
0.014097
0.036723
0.013731
0.047664
0.016723
0.005589
0.034685
0.014972
0.009888
-0.001234
0.024072
0.028036
0.022534
-0.005976
0.006088
0.023267
0.015962
0.006559
-0.008922
-0.001833
-0.014342
0.014290
-0.018480
0.017964
-0.015449
0.012162
0.001610
0.015320
0.013555
0.004612
0.011473
0.025370
-0.009568
-0.012614
0.008124
-0.001491
-0.011039
-0.008224
0.009689
0.007804
0.011881
0.017992
-0.018989
0.013878
-0.013527
-0.007136
-0.024195
0.017134
0.016122
-0.006836
0.003631
-0.024968
-0.020617
0.006264
-0.010359
-0.000425
0.007431
-0.003243
-0.017784
0.005522
0.004851
-0.006105
0.005192
0.000070
-0.010189
-0.001258
0.019773
0.005794
0.001304
0.020146
0.010103
0.007987
0.008547
0.020491
0.012437
0.000782
-0.017730
-0.004764
0.028615
0.024170
-0.030194
-0.012005
0.008980
-0.011165
-0.015118
0.019358
-0.006184
0.014068
0.027270
0.001573
0.017419
0.000587
0.011288
-0.025836
0.016220
-0.005605
0.012053
-0.020252
-0.005325
0.017806
0.001004
0.026055
0.018964
0.012553
0.015843
0.025839
0.023363
0.032174
0.030030
0.050623
0.026427
0.055758
0.057249
0.054972
0.093306
0.083317
0.123042
0.118582
0.133334
0.113090
0.122888
0.144290
0.165748
0.129996
0.151174
0.140197
0.166003
0.163698
0.145935
0.136108
0.107125
0.086396
0.128365
0.105164
0.081081
0.084519
0.055909
0.111915
0.009881
0.033794
0.033571
0.013548
0.031412
0.036704
0.013487
0.017509
0.007871
-0.028373
-0.011744
-0.012000
-0.016523
-0.038689
0.012151
-0.012441
-0.045082
-0.034428
-0.046844
-0.039930
-0.076060
-0.033189
-0.063471
-0.016029
-0.049150
-0.040209
-0.017605
-0.016612
0.008674
0.045382
0.049541
0.110814
0.118127
0.147296
0.187076
0.231866
0.280943
0.322768
0.379338
0.458235
0.544772
0.573239
0.636089
0.686747
0.735939
0.813477
0.837781
0.903493
0.921883
0.952645
0.983098
1.007096
1.010249
1.014978
1.011164
0.995625
0.955888
0.928414
0.903343
0.858928
0.826378
0.725069
0.685350
0.626050
0.565249
0.501873
0.463537
0.395518
0.369661
0.300046
0.279877
0.242964
0.190996
0.171819
0.142433
0.165307
0.122937
0.147272
0.147528
0.176092
0.159499
0.204778
0.205863
0.257527
0.295541
0.318912
0.367077
0.386775
0.483992
0.529585
0.523386
0.595062
0.628282
0.679709
0.719213
0.758938
0.787752
0.793078
0.851616
0.878020
0.897801
0.888131
0.908889
0.926659
0.946078
0.907526
0.938211
0.922367
0.932317
0.890171
0.872966
0.851199
0.839340
0.813426
0.765216
0.767203
0.728942
0.705641
0.647156
0.665877
0.597420
0.587029
0.548092
0.525648
0.493056
0.477544
0.453998
0.431417
0.364306
0.357275
0.336659
0.352820
0.329113
0.323325
0.319696
0.241305
0.260854
0.265045
0.236156
0.234260
0.221944
0.241285
0.213909
0.209807
0.217986
0.198207
0.183729
0.187636
0.155022
0.157214
0.154634
0.133745
0.137755
0.133630
0.126045
0.104779
0.116853
0.060916
0.099465
0.083012
0.108230
0.094644
0.059424
0.070133
0.075174
0.068394
0.065176
0.064734
0.056545
0.044600
0.068131
0.061304
0.085423
0.041156
0.074000
0.036415
0.039964
0.055345
0.040097
0.035597
0.058269
0.053968
0.007033
0.025501
0.018625
0.021643
-0.007203
0.017854
0.022394
0.005783
0.000994
-0.003265
-0.008972
0.017603
0.018135
-0.012352
-0.002589
0.000155
0.034734
0.006955
-0.001138
0.013373
-0.009337
-0.017440
0.019240
0.003917
0.003376
0.011509
-0.007420
0.013632
-0.014817
0.000496
0.009903
0.009361
-0.032334
0.003822
0.004200
0.010694
-0.002417
-0.014187
0.007413
-0.004677
0.015693
0.001989
0.015944
0.004166
-0.009906
-0.004575
-0.021429
0.001321
0.008343
0.032634
0.018307
-0.023270
0.033026
-0.010181
-0.001916
-0.000983
0.025449
-0.010113
0.023180
0.007972
0.027300
-0.007506
-0.004685
-0.013307
0.024784
0.000809
-0.013914
-0.003281
0.009219
0.005786
0.015146
-0.003240
0.004799
0.003619
-0.017326
-0.031243
0.004190
0.004138
0.009043
-0.017898
0.004103
0.005342
0.005621
0.010157
0.001054
0.042346
0.011604
-0.020715
0.031584
0.006202
-0.011219
-0.004700
-0.007994
-0.006517
-0.009318
0.022413
-0.000643
0.004021
-0.024575
0.024932
0.030132
-0.004592
0.040541
-0.005138
0.026087
0.024949
0.014708
0.026819
0.038165
0.037102
0.058661
0.060063
0.075267
0.065847
0.092315
0.089963
0.116074
0.101754
0.133566
0.133311
0.135503
0.159892
0.165213
0.165921
0.146777
0.133584
0.139561
0.147592
0.148320
0.135271
0.137592
0.090940
0.103897
0.074631
0.085153
0.084023
0.088309
0.070094
0.079007
0.058729
0.035571
0.026339
0.035035
-0.001993
0.042176
-0.014611
0.008175
-0.018007
-0.010537
-0.017277
-0.013706
-0.028716
-0.050385
-0.047317
-0.052383
-0.042826
-0.056195
-0.039886
-0.034446
-0.030230
-0.039630
-0.054080
-0.046671
-0.025368
-0.024617
0.007939
0.010971
0.030844
0.072354
0.083739
0.095607
0.123655
0.175546
0.244647
0.252608
0.339203
0.403758
0.459922
0.492798
0.581938
0.643871
0.685730
0.737375
0.805916
0.851138
0.868152
0.904884
0.968804
0.991925
0.959467
0.968598
0.995491
0.987775
0.963342
0.952123
0.919870
0.886535
0.848569
0.782597
0.728544
0.679865
0.616640
0.542119
0.519733
0.462548
0.427669
0.352846
0.302960
0.246026
0.223086
0.214783
0.185457
0.149828
0.135298
0.151213
0.101581
0.140626
0.122819
0.178436
0.191647
0.228951
0.243373
0.279077
0.302169
0.366003
0.423635
0.446981
0.508113
0.564587
0.595248
0.626908
0.649812
0.719434
0.780712
0.775591
0.785412
0.852257
0.886192
0.898978
0.930751
0.917980
0.922863
0.946457
0.949913
0.936802
0.919713
0.927142
0.891048
0.902821
0.889036
0.824732
0.786362
0.775318
0.761325
0.729373
0.678293
0.653686
0.662713
0.628344
0.569054
0.529950
0.529556
0.504037
0.463336
0.440891
0.418301
0.383536
0.385047
0.368961
0.349247
0.329855
0.277472
0.300835
0.272024
0.276905
0.251085
0.268048
0.214252
0.217701
0.228335
0.216593
0.189356
0.157863
0.192102
0.169884
0.149951
0.159836
0.132811
0.151459
0.162190
0.129506
0.131547
0.152848
0.149988
0.101015
0.122781
0.096620
0.084274
0.081423
0.099298
0.096319
0.090283
0.085483
0.086690
0.053589
0.079547
0.064491
0.071725
0.057111
0.058083
0.056924
0.044657
0.042438
0.048742
0.045739
0.050361
0.052059
0.029166
0.048884
0.056155
0.060438
0.043959
0.018464
0.036525
0.041822
0.025576
0.007897
0.034613
0.005831
-0.014818
0.015290
0.032895
0.021879
0.014854
-0.009062
-0.012951
0.004014
0.003783
-0.011186
0.010948
-0.016069
0.018715
-0.005410
-0.022454
-0.004472
-0.008500
-0.006683
0.020255
-0.020810
-0.005208
0.007373
0.002749
-0.027004
-0.018780
0.025728
0.007846
-0.011358
-0.003035
-0.024390
-0.012644
0.005994
0.011764
-0.012733
0.005137
0.012256
-0.012535
-0.002773
-0.008361
0.004460
0.023037
-0.004227
-0.018911
0.024974
-0.000113
0.013192
0.024165
-0.006495
-0.001592
0.005922
-0.013382
-0.008466
-0.005161
0.015577
0.004493
0.002066
-0.012496
0.000048
-0.015987
-0.008701
0.002566
-0.025946
-0.004344
0.003976
-0.000828
-0.010269
-0.002491
0.011435
-0.007588
-0.018514
-0.022980
0.008470
-0.011709
-0.002416
-0.013326
0.001137
-0.004946
0.031216
0.034569
-0.001479
-0.004822
0.013876
0.002308
0.000717
-0.006967
-0.033463
0.021913
-0.000359
-0.011765
-0.013472
0.022144
0.004893
0.024433
0.015935
-0.004933
0.016407
0.011629
0.029263
0.007493
0.051246
0.035552
0.067450
0.058131
0.089448
0.071792
0.115406
0.096896
0.129041
0.118018
0.129516
0.123293
0.115916
0.126878
0.144487
0.134159
0.177892
0.162818
0.151181
0.130081
0.158174
0.121010
0.135542
0.102655
0.113066
0.093818
0.060632
0.078864
0.061083
0.050939
0.064972
0.025155
0.065983
0.025181
0.031011
-0.015093
0.011471
0.008828
-0.005723
-0.010338
-0.008644
-0.009597
-0.034236
-0.032962
-0.040015
-0.027321
-0.048954
-0.004435
-0.053185
-0.049707
-0.064878
-0.045724
-0.069856
-0.025179
-0.019755
-0.009295
-0.024285
0.006517
0.009382
0.034855
0.047632
0.079593
0.119755
0.160347
0.209864
0.254021
0.289101
0.323491
0.398170
0.463208
0.532531
0.557722
0.616081
0.677067
0.762379
0.796808
0.835861
0.874777
0.904828
0.954048
0.987819
0.988687
1.044839
1.015848
0.993486
0.979228
0.961933
0.940212
0.875733
0.850274
0.791861
0.765247
0.707814
0.615769
0.572919
0.510394
0.486781
0.395818
0.356377
0.305748
0.286001
0.227435
0.201892
0.181109
0.170627
0.129662
0.122564
0.164839
0.125707
0.142249
0.177473
0.204685
0.214520
0.217093
0.292880
0.318333
0.359853
0.421077
0.440771
0.497997
0.529575
0.571481
0.629443
0.692017
0.694005
0.748866
0.770269
0.809484
0.847837
0.884143
0.874934
0.911699
0.910252
0.927326
0.958269
0.935342
0.925545
0.929226
0.910187
0.921995
0.864252
0.875704
0.845865
0.785856
0.802208
0.777784
0.739207
0.683156
0.677925
0.622510
0.642165
0.580940
0.542505
0.513494
0.500744
0.464772
0.426355
0.407448
0.390534
0.368374
0.348744
0.331931
0.334491
0.302786
0.276495
0.279491
0.255134
0.243500
0.254750
0.253321
0.230788
0.197091
0.227058
0.182512
0.179917
0.183899
0.194261
0.169400
0.138570
0.154677
0.140787
0.137933
0.132745
0.114931
0.120618
0.100579
0.102925
0.102869
0.073996
0.088597
0.078446
0.110586
0.097101
0.091239
0.073055
0.047281
0.073855
0.086799
0.089092
0.061747
0.070772
0.054335
0.060238
0.057002
0.050298
0.034856
0.029171
0.052662
0.021613
0.041713
0.035508
0.031182
0.037762
0.035493
0.005653
0.013932
0.037716
0.025181
0.023139
-0.008074
0.030039
0.026381
0.016668
-0.012325
0.015275
0.031773
0.033578
0.016118
0.012461
-0.009536
0.002971
-0.010456
-0.006790
0.000492
0.023923
-0.000245
0.001473
0.008219
0.010744
-0.029987
0.001382
0.016342
0.022268
-0.039754
0.008583
0.014483
-0.003266
-0.021914
0.013103
-0.000083
-0.016349
-0.012298
0.006509
0.009474
-0.004579
-0.018110
-0.004697
-0.018789
-0.029143
-0.005033
-0.016196
0.010354
0.007090
0.026409
0.014783
0.008758
-0.005616
0.000546
-0.022543
0.006545
-0.005182
-0.018416
-0.001955
0.015581
0.018449
-0.027338
0.007960
0.005098
0.024105
0.002054
-0.024655
0.008125
-0.024421
-0.002178
-0.021662
0.011554
0.012897
0.006481
0.004001
-0.008325
0.005310
-0.010015
0.022984
-0.000863
0.011605
-0.003953
0.001495
-0.008877
-0.038634
0.013482
-0.015476
-0.006692
-0.008885
0.006938
-0.013794
0.014829
-0.009694
-0.024814
0.012172
-0.000841
-0.008224
0.019694
0.020391
-0.007641
0.014781
-0.005966
0.020119
0.038926
0.028346
0.016621
0.040337
0.070774
0.080377
0.070725
0.083120
0.088616
0.101975
0.086684
0.126709
0.126213
0.121326
0.127176
0.141576
0.142963
0.155951
0.150171
0.150324
0.153018
0.165154
0.148818
0.110060
0.129983
0.129472
0.154862
0.114772
0.094518
0.092109
0.088412
0.074504
0.056362
0.051184
0.062515
0.029752
0.019707
0.022434
-0.011751
0.024631
-0.011678
-0.002869
-0.012747
-0.028285
-0.015767
-0.006331
-0.016301
-0.021988
-0.027771
-0.023132
-0.043434
-0.038287
-0.049734
-0.038384
-0.064799
-0.045090
-0.037641
-0.019353
-0.000631
-0.011565
-0.029340
0.000295
0.030348
0.020084
0.094061
0.106673
0.145940
0.212842
0.263793
0.296549
0.341716
0.395706
0.454365
0.489626
0.545914
0.615777
0.672627
0.737227
0.796396
0.860391
0.893627
0.931221
0.939775
0.977997
0.981598
1.024038
1.034123
1.010654
0.975570
0.957347
0.929371
0.890196
0.858320
0.800689
0.751613
0.708530
0.633947
0.557758
0.507487
0.454739
0.376817
0.329534
0.315541
0.243555
0.242614
0.196072
0.189265
0.187021
0.138371
0.140401
0.136247
0.122874
0.163268
0.205566
0.165424
0.195812
0.228757
0.293719
0.319452
0.359325
0.404661
0.476857
0.509720
0.551759
0.605489
0.652354
0.683572
0.713380
0.738195
0.796767
0.833929
0.841321
0.910535
0.890485
0.946141
0.919337
0.956516
0.922410
0.937587
0.916801
0.913442
0.911730
0.904822
0.891938
0.868523
0.840913
0.812476
0.787699
0.746411
0.711992
0.707532
0.657767
0.666045
0.580160
0.571537
0.559125
0.528768
0.486426
0.459424
0.437243
0.392797
0.413589
0.383617
0.343812
0.349535
0.323651
0.317582
0.293687
0.272555
0.264805
0.284422
0.276473
0.216815
0.212286
0.208220
0.174561
0.223033
0.187370
0.194267
0.169100
0.185478
0.136641
0.163312
0.149737
0.158577
0.135268
0.145433
0.111900
0.128235
0.104487
0.113806
0.105449
0.105274
0.098856
0.103118
0.089384
0.068604
0.085536
0.085063
0.054356
0.042358
0.063944
0.073955
0.037271
0.060664
0.062838
0.035820
0.031554
0.045909
0.041757
0.031623
0.039040
0.011337
0.018298
0.005911
0.021399
0.022355
0.011922
0.007227
0.018651
0.043411
0.020132
0.025480
-0.009213
0.017868
0.000058
0.005786
0.018673
0.022052
0.007654
0.018717
0.009250
-0.000157
-0.006827
0.031507
0.019292
0.018715
0.016085
0.004620
-0.017836
0.008501
0.026854
0.017161
0.018241
-0.002477
0.027454
0.009830
0.019080
0.009950
-0.009932
-0.002792
0.003506
-0.021260
0.007748
-0.009924
0.035671
0.014275
-0.010874
-0.015813
0.001108
0.005632
0.011087
0.003906
-0.004735
-0.020636
0.019063
0.007498
-0.002512
0.019043
-0.005305
0.023430
0.025671
-0.001587
0.035509
0.001900
-0.024282
0.003799
0.026387
0.023833
0.003889
-0.001718
0.010511
-0.022123
0.013314
0.010596
0.006135
-0.018471
-0.004296
0.022321
-0.000249
0.000540
-0.021491
-0.020138
0.012781
0.004432
0.006474
-0.004913
0.017066
0.002475
0.009078
-0.030537
0.003978
0.024525
0.032200
-0.013422
-0.006719
0.000756
-0.010862
0.002375
0.000129
0.006795
-0.007665
-0.013017
0.024703
0.000294
0.006889
0.029847
0.026020
-0.003452
0.042634
0.040545
0.029949
0.032014
0.078003
0.039178
0.047666
0.054506
0.087466
0.070400
0.088826
0.126181
0.094339
0.093308
0.134434
0.122760
0.145343
0.153559
0.150490
0.162337
0.123469
0.149058
0.169200
0.146653
0.134625
0.118952
0.138405
0.123026
0.119561
0.130187
0.089373
0.104189
0.060602
0.052907
0.058104
0.047674
0.038899
0.034532
0.016154
0.013074
0.015385
-0.011015
-0.003113
-0.033642
-0.032978
-0.038282
-0.042980
-0.026453
-0.015408
-0.026471
-0.036683
-0.026692
-0.071699
-0.042945
-0.042539
-0.020489
-0.037757
-0.042369
-0.028802
-0.014878
-0.029156
0.004523
0.021028
0.014395
0.057531
0.102081
0.126278
0.203487
0.179094
0.233038
0.309332
0.333784
0.368680
0.420724
0.536441
0.597696
0.594859
0.684374
0.754219
0.783757
0.866122
0.898746
0.894171
0.946112
0.985180
0.981549
0.998609
1.009876
1.020922
1.000354
0.960485
0.928361
0.898067
0.855916
0.784222
0.761469
0.676462
0.625896
0.571951
0.495275
0.442609
0.402629
0.388301
0.314229
0.278588
0.209798
0.207921
0.161424
0.166064
0.145806
0.137623
0.143008
0.166933
0.122883
0.180107
0.210965
0.207969
0.252328
0.286135
0.343625
0.367533
0.391835
0.449207
0.477758
0.546564
0.610337
0.634743
0.666603
0.710668
0.746348
0.805498
0.812148
0.830647
0.887515
0.872440
0.890804
0.914483
0.928201
0.942687
0.965402
0.937121
0.935817
0.900696
0.884198
0.881167
0.885492
0.825469
0.820584
0.770980
0.771731
0.731539
0.709850
0.655720
0.635166
0.603867
0.545269
0.571264
0.495730
0.474165
0.424152
0.448352
0.419850
0.414403
0.389107
0.339069
0.333428
0.315705
0.303832
0.286323
0.276800
0.281198
0.261125
0.256111
0.253892
0.237489
0.192288
0.191466
0.201378
0.177976
0.203422
0.186815
0.162730
0.157645
0.189042
0.139563
0.119669
0.119258
0.137887
0.143361
0.125921
0.111933
0.105099
0.103836
0.083659
0.099873
0.080123
0.091231
0.077285
0.060162
0.067566
0.083092
0.065290
0.052958
0.037612
0.076719
0.050219
0.055882
0.016507
0.040798
0.057516
0.037979
0.015992
0.026735
0.010656
0.043131
0.034287
-0.000932
0.008759
0.016610
0.029400
0.029051
0.013181
0.012974
-0.004705
0.016726
0.027657
0.005773
0.025981
0.007288
-0.008006
0.026603
0.010109
-0.016567
0.008268
-0.000041
0.003269
0.015129
0.011609
0.004934
-0.015367
-0.017233
-0.000449
0.006051
0.028998
-0.003233
-0.030853
0.014819
0.001069
0.018256
0.008094
0.018826
-0.016910
0.010420
-0.009558
-0.004933
0.001276
0.016322
0.009648
-0.006266
-0.013262
0.008039
0.001640
-0.008953
-0.023253
-0.008142
-0.020550
-0.004043
0.004111
-0.004871
0.007663
-0.015675
-0.012869
0.000124
-0.010678
0.011405
-0.003872
-0.004013
-0.003348
-0.032251
0.017552
-0.001388
-0.000412
-0.014385
0.022805
-0.012253
0.034265
-0.010287
-0.004704
0.014998
-0.001090
-0.004027
0.001159
-0.012824
-0.014324
-0.021597
0.022055
-0.009729
-0.018225
-0.031386
-0.001887
-0.013256
-0.000180
-0.010888
-0.006117
-0.009808
-0.012955
-0.012203
-0.010638
-0.011010
0.001382
0.001254
0.006633
0.009646
-0.003978
-0.008722
0.009743
0.003722
0.000275
0.006948
0.003928
0.027122
0.001099
0.036777
0.048093
0.049144
0.057435
0.036270
0.062750
0.079977
0.086373
0.087830
0.062133
0.097021
0.114641
0.130276
0.132799
0.133570
0.141913
0.138902
0.139872
0.153731
0.151648
0.115023
0.131281
0.166067
0.133082
0.142819
0.115867
0.069678
0.092811
0.090261
0.073440
0.082135
0.092597
0.029127
0.052337
0.049792
0.019784
0.018887
0.016787
0.021837
-0.025227
-0.012443
0.025840
-0.014709
-0.013694
-0.005459
-0.006540
-0.015580
-0.013099
-0.010125
-0.042039
-0.040381
-0.041786
-0.044048
-0.035454
-0.047224
-0.050242
-0.033703
-0.013744
-0.012025
-0.002331
-0.014020
0.037006
0.050483
0.119250
0.117089
0.119817
0.179519
0.254616
0.261085
0.339874
0.397755
0.474203
0.521753
0.570101
0.599078
0.694255
0.732474
0.799650
0.859300
0.897139
0.922891
0.932566
1.001541
0.998908
0.997244
1.006821
0.974979
0.971457
0.959858
0.929192
0.877060
0.849536
0.767644
0.749626
0.671444
0.629407
0.558548
0.502666
0.461778
0.388009
0.360950
0.311682
0.284401
0.212927
0.197059
0.137217
0.134339
0.162221
0.155563
0.136357
0.146257
0.172214
0.198673
0.202199
0.212866
0.248043
0.284024
0.332985
0.403537
0.394068
0.462316
0.495394
0.532691
0.608869
0.627812
0.666912
0.703198
0.736252
0.771270
0.826983
0.840972
0.857041
0.902379
0.927024
0.930928
0.937693
0.938286
0.947307
0.950152
0.929743
0.929723
0.883966
0.880882
0.889385
0.842458
0.815218
0.812485
0.721611
0.726216
0.711844
0.670613
0.671299
0.615545
0.573212
0.540204
0.511045
0.513666
0.457181
0.450587
0.410497
0.398429
0.386986
0.349864
0.336511
0.329195
0.296342
0.291562
0.247830
0.259134
0.264436
0.248645
0.241616
0.212026
0.206728
0.197122
0.186221
0.187079
0.200282
0.146832
0.176419
0.142925
0.139395
0.124146
0.148495
0.116918
0.146365
0.147829
0.086436
0.136311
0.139461
0.111783
0.130815
0.091216
0.086254
0.103360
0.089468
0.065613
0.050815
0.081443
0.067709
0.055240
0.020475
0.054155
0.057871
0.040084
0.025068
0.054007
0.045149
0.029915
0.057841
0.021414
0.039961
0.029962
0.000476
0.040506
0.023965
0.022887
0.020588
0.034953
0.032670
0.000294
0.029854
0.009230
0.011026
-0.001015
-0.006945
0.023346
0.017986
0.045039
0.021680
0.015396
0.012507
-0.000494
0.019365
0.003771
0.013415
-0.000764
-0.004666
-0.003713
-0.010384
-0.017673
-0.011932
-0.000251
-0.000666
0.023799
-0.013278
-0.011731
0.011729
-0.028009
0.027785
0.007411
-0.004428
-0.034102
0.017874
-0.007754
0.018568
-0.001576
0.001124
-0.011248
-0.013048
-0.022196
0.027797
-0.025153
0.010538
-0.012738
0.026983
-0.004413
-0.008360
-0.010220
0.015895
-0.001007
0.012766
-0.025308
-0.000524
0.024849
-0.001193
0.004921
-0.013499
0.004833
0.010168
-0.016581
-0.023242
0.033261
0.008846
-0.003228
-0.001794
-0.028633
-0.018644
0.003587
0.017752
0.012745
-0.003983
-0.010159
0.001050
-0.004119
-0.015968
0.019754
0.007353
0.011503
-0.008650
0.015235
-0.006943
-0.024029
0.004417
0.030168
-0.005219
-0.011634
0.017440
0.015511
-0.014978
-0.008247
0.013667
-0.019201
0.011965
0.043213
0.021312
0.004089
0.006075
0.004233
0.030807
0.049890
0.052632
0.065339
0.046759
0.069718
0.063786
0.034513
0.075303
0.098893
0.110162
0.099185
0.102202
0.147240
0.140509
0.141164
0.161607
0.153808
0.155492
0.142012
0.159280
0.134550
0.143151
0.132828
0.130913
0.131722
0.106339
0.129190
0.100723
0.069196
0.068296
0.067961
0.067291
0.044366
0.022105
0.053010
0.031661
0.023580
0.005447
0.004800
-0.004752
-0.021831
-0.013939
-0.005690
0.009493
-0.030390
-0.042925
-0.039086
-0.042155
-0.052652
-0.029004
-0.048649
-0.065606
-0.054402
-0.069790
-0.037475
-0.051199
-0.047833
-0.045008
-0.003007
-0.011239
-0.003240
0.059699
0.069727
0.100999
0.140990
0.160198
0.196719
0.248042
0.293248
0.321235
0.421309
0.459332
0.518321
0.566848
0.590060
0.687930
0.747998
0.794604
0.810754
0.887675
0.924285
0.945466
1.005037
0.995657
1.003166
1.014936
0.974645
0.976008
0.925468
0.946725
0.884939
0.836066
0.790926
0.749893
0.678227
0.650774
0.568830
0.537750
0.452562
0.425488
0.355748
0.287049
0.271081
0.218691
0.194750
0.171749
0.150794
0.149181
0.106992
0.137189
0.172447
0.157350
0.198081
0.191042
0.241421
0.259830
0.293260
0.312117
0.348494
0.412642
0.470635
0.481159
0.534251
0.602778
0.639774
0.657647
0.703294
0.747235
0.792595
0.820189
0.837240
0.851734
0.879140
0.920050
0.932645
0.934631
0.927636
0.949207
0.918424
0.918741
0.917873
0.920691
0.905387
0.868974
0.825285
0.841486
0.809741
0.768263
0.718282
0.701299
0.671508
0.638178
0.610242
0.580262
0.537374
0.500294
0.494717
0.466273
0.435506
0.419207
0.384208
0.356970
0.374600
0.335636
0.308539
0.318582
0.284407
0.238366
0.254549
0.271979
0.218376
0.249945
0.236105
0.191020
0.216446
0.224093
0.204183
0.187119
0.164184
0.155867
0.144637
0.181610
0.150495
0.115606
0.146785
0.125761
0.125073
0.110744
0.111557
0.092003
0.098362
0.105232
0.081192
0.070552
0.052279
0.105044
0.065109
0.083299
0.076517
0.053556
0.065040
0.030742
0.087731
0.050098
0.049786
0.031190
0.035842
0.020507
0.041173
0.038658
0.035264
0.037550
0.005662
0.017737
0.006971
0.021571
0.015633
0.020511
0.031585
0.045759
0.015235
0.031752
-0.003919
0.033586
0.027560
0.039808
-0.015795
0.009916
0.032751
-0.026647
-0.006578
-0.002328
0.018466
0.023667
0.022246
0.008943
0.004097
0.001050
-0.001920
-0.008194
0.009829
0.010219
