-0.041602
0.020777
-0.039403
-0.015479
0.011636
-0.000145
-0.012244
-0.018524
-0.036893
-0.020337
-0.043866
0.014469
0.015700
0.021853
0.028392
0.035943
-0.008619
0.006035
0.025689
0.014436
0.010300
0.079727
0.061683
0.063000
0.050310
0.069143
0.018067
0.036211
-0.011480
-0.013017
-0.005493
-0.030623
-0.014955
-0.041579
-0.015547
-0.021934
-0.009455
0.008193
0.006831
0.023539
-0.012889
0.012764
0.011551
-0.024843
-0.047368
-0.015631
-0.011833
0.012824
-0.025809
-0.010763
-0.001689
-0.037620
-0.000404
-0.020120
0.011539
0.001197
0.018140
0.012602
-0.026130
-0.053597
-0.065033
-0.006501
-0.005556
0.000654
0.014110
0.046003
0.028677
0.028172
0.037038
0.068368
0.112396
0.179992
0.242450
0.340596
0.449129
0.595834
0.701047
0.821885
0.924158
0.964608
0.977574
0.905516
0.824219
0.706201
0.576423
0.492439
0.352035
0.240596
0.166405
0.034871
-0.030845
-0.078648
-0.139881
-0.181575
-0.175414
-0.176949
-0.097660
-0.061267
-0.006316
0.017013
0.017329
0.022468
0.023808
0.020083
0.023847
0.052218
0.045775
0.063469
0.078854
0.110638
0.080518
0.118085
0.142060
0.134485
0.139697
0.142561
0.138963
0.152057
0.111263
0.169591
0.164643
0.155189
0.183776
0.243028
0.257864
0.230386
0.272926
0.226771
0.174001
0.196766
0.199843
0.213447
0.212312
0.262706
0.243447
0.253192
0.247197
0.251883
0.248467
0.311111
0.295012
0.349599
0.325307
0.359655
0.332397
0.317311
0.297282
0.355809
0.357858
0.378144
0.070858
0.057426
0.027408
-0.009779
0.009942
0.019953
0.031420
-0.012789
-0.000832
0.041606
0.056538
-0.010590
-0.018678
0.020160
-0.014720
-0.075803
-0.059709
-0.106325
-0.084784
-0.066214
-0.048596
-0.015557
-0.044399
-0.003848
0.016367
0.025827
-0.002586
0.047504
0.010808
-0.006009
-0.017109
0.006258
0.004909
0.028722
0.012782
0.044735
0.039152
-0.016230
-0.023085
-0.022748
-0.009539
-0.016988
0.014449
0.015376
0.044297
0.027275
0.048309
0.025645
0.046325
0.033401
0.012271
0.041890
0.002598
0.005841
-0.017282
-0.005971
-0.026845
-0.025453
-0.034421
-0.100517
-0.084664
-0.093131
-0.066504
-0.085873
-0.066944
-0.067666
-0.106891
-0.064490
-0.036207
0.030101
0.044554
0.136624
0.220200
0.343808
0.484564
0.666609
0.762933
0.865614
0.983361
0.996902
0.983497
0.967683
0.906450
0.815719
0.708584
0.526592
0.407571
0.268601
0.160245
0.029072
-0.023104
-0.105605
-0.153269
-0.147664
-0.193215
-0.134699
-0.121241
-0.081527
-0.055621
0.007866
0.031921
0.045233
0.057793
0.083095
0.065988
0.070023
0.087188
0.085644
0.031978
0.106319
0.069008
0.085848
0.125731
0.126368
0.120526
0.097790
0.082063
0.089790
0.111183
0.088686
0.073659
0.116399
0.117744
0.115171
0.111743
0.173498
0.144534
0.205740
0.217494
0.203425
0.248794
0.242105
0.225880
0.207198
0.265472
0.227176
0.261013
0.232618
0.229384
0.236913
0.208309
0.213104
0.249673
0.233036
0.309375
0.323551
0.343230
0.366455
0.340197
0.281021
0.256992
0.240059
0.271955
0.294967
0.281128
0.318594
0.309377
0.298752
0.281145
0.273327
0.272111
0.304362
0.321733
0.297375
0.309135
0.311173
0.266127
0.271230
0.306614
0.320576
0.315030
0.335337
0.284141
0.298413
0.310460
0.308245
0.281448
0.243434
0.224013
0.248279
0.242412
0.243326
0.297184
0.305990
0.231755
0.211457
0.180533
0.198174
0.185502
0.197430
0.188502
0.168532
0.177460
0.090705
0.086222
0.084180
0.103923
0.115570
0.090060
0.105614
0.172684
0.149542
0.122756
0.111241
0.147766
0.076001
0.081397
0.086727
0.081505
0.132015
0.101536
0.140664
0.134773
0.135747
0.081132
0.103596
0.064196
0.028123
0.068814
0.020778
0.028873
0.011899
0.037136
0.014611
0.060750
0.037114
0.024606
0.027080
-0.006059
-0.018948
-0.037138
-0.042412
-0.029184
-0.009962
0.042661
0.033139
-0.009794
0.040967
0.005818
0.003323
-0.033376
-0.032675
-0.042542
-0.007308
-0.020851
0.014698
-0.024938
-0.032343
0.002328
-0.009922
0.001496
-0.002512
0.061068
-0.003125
0.017849
-0.029320
0.043031
0.011279
-0.008118
-0.005074
0.033310
0.059366
0.034932
0.084656
0.094145
0.049720
0.038583
0.070995
0.027576
-0.005172
0.012635
-0.025152
-0.051214
-0.045915
-0.038849
-0.040735
-0.050821
-0.076631
-0.038390
-0.012314
-0.041428
0.023678
-0.027928
-0.040283
-0.029872
-0.040515
-0.045591
-0.052355
-0.004016
-0.034147
-0.075170
-0.006647
0.000291
-0.002052
0.053252
0.111856
0.218243
0.300073
0.388331
0.530582
0.620861
0.733338
0.808190
0.909267
0.935278
0.951385
0.939713
0.903137
0.789877
0.633128
0.513251
0.380298
0.228161
0.072514
0.035459
-0.074343
-0.117665
-0.133812
-0.138844
-0.099388
-0.098049
-0.062565
-0.063466
-0.020335
0.019888
0.018189
0.047415
0.069651
0.021334
0.044778
0.068281
0.092366
0.101308
0.113629
0.143219
0.103091
0.076961
0.118256
0.124309
0.184346
0.196777
0.188493
0.132643
0.148488
0.156902
0.113214
0.186111
0.206751
0.240292
0.255261
0.239788
0.198436
0.218088
0.176736
0.194239
0.168269
0.228127
0.223154
0.198159
0.248394
0.285177
0.303033
0.241319
0.225416
0.268296
0.223644
0.240054
0.240553
0.237050
0.229622
0.237975
0.251589
0.288956
0.300676
0.299125
0.297510
0.319956
0.265254
0.287993
0.280226
0.285756
0.279016
0.277061
0.250026
0.241889
0.256022
0.253230
0.330718
0.339816
0.333416
0.353812
0.336421
0.296727
0.293348
0.273216
0.286563
0.258686
0.221186
0.236277
0.226854
0.229873
0.224198
0.273529
0.254893
0.213974
0.205358
0.185780
0.186128
0.193616
0.215727
0.208770
0.226077
0.212700
0.206061
0.164813
0.132149
0.125834
0.176058
0.137058
0.187692
0.167416
0.188028
0.122436
0.111191
0.149839
0.127716
0.114939
0.099755
0.107213
0.067166
0.041761
0.064918
0.022196
0.029059
0.044148
0.088760
0.079425
0.025400
0.057763
0.060864
0.079634
0.056823
0.062774
0.104284
0.066388
0.030457
0.086778
0.074239
0.049663
0.023786
0.039792
-0.004746
0.045983
0.025360
0.048520
0.020730
0.019407
0.031443
-0.003301
-0.036679
0.007502
0.026619
-0.003604
0.030876
0.023392
0.003969
-0.018826
0.014351
-0.016881
-0.006467
-0.001340
0.009148
-0.025417
-0.028837
0.019473
-0.039118
-0.046650
-0.003663
0.022119
0.012924
0.062853
0.035219
-0.004976
-0.003787
0.011465
-0.012406
0.009733
0.026817
-0.038274
-0.000341
-0.027437
-0.008673
-0.032804
0.013876
0.034029
0.017016
0.009405
-0.016261
0.020074
0.009218
0.034304
-0.001583
-0.007182
-0.027319
-0.046493
-0.038906
-0.015544
-0.042547
-0.010984
0.001394
0.006248
0.010498
0.032513
0.079461
0.064991
0.104442
0.036989
0.044526
0.014271
0.017282
-0.005771
0.012622
0.004646
0.004205
0.003683
-0.002799
-0.044882
-0.056516
-0.000192
0.003669
-0.022614
0.044442
0.052083
0.006587
0.004167
0.065758
-0.004302
-0.000597
0.032763
0.002876
0.023903
0.028930
0.010065
0.005782
-0.072061
-0.056370
-0.011086
-0.054252
-0.000072
0.009385
0.024321
-0.032578
-0.015856
0.006714
0.010180
-0.006712
-0.007078
-0.015427
-0.033907
-0.018043
0.010440
0.001350
0.025881
0.037357
0.057329
0.001822
0.021991
0.013387
-0.019253
0.009009
-0.020233
-0.041470
-0.040923
-0.020539
-0.025277
0.043187
0.109544
0.221875
0.266196
0.387227
0.459081
0.584374
0.750207
0.834700
0.946732
0.981889
1.000353
0.919235
0.847284
0.748548
0.646412
0.465189
0.350393
0.204917
0.034885
-0.104268
-0.120242
-0.159248
-0.177927
-0.149141
-0.117882
-0.093053
-0.066888
-0.046718
-0.015802
-0.007440
0.030403
0.047655
0.078034
0.042206
0.066528
0.060732
0.075662
0.108095
0.120067
0.153592
0.174368
0.180572
0.131895
0.123268
0.072770
0.160139
0.135070
0.152489
0.200075
0.229345
0.153179
0.163149
0.139162
0.176631
0.185165
0.215860
0.192677
0.213470
0.213832
0.205398
0.192050
0.214288
0.255524
0.214861
0.201334
0.208125
0.214838
0.223081
0.214390
0.190826
0.220754
0.212888
0.249268
0.229848
0.302325
0.325023
0.265845
0.271204
0.250160
0.244276
0.238327
0.249898
0.236355
0.254263
0.258677
0.303066
0.298249
0.334250
0.365846
0.324198
0.294222
0.280963
0.300769
0.290964
0.356310
0.335440
0.322079
0.324800
0.286849
0.303333
0.272149
0.255911
0.274619
0.268178
0.231098
0.244084
0.216250
0.187489
0.154034
0.221053
0.205267
0.160117
0.223915
0.195255
0.150185
0.189250
0.140869
0.152975
0.168531
0.188337
0.187759
0.184040
0.181484
0.196922
0.137235
0.137859
0.070030
0.102798
0.116680
0.086217
0.131524
0.108989
0.087251
0.035497
0.083303
0.077252
0.089748
0.093233
0.085302
0.112198
0.102675
0.109556
0.072339
0.080334
0.064273
0.052846
0.045183
0.066853
0.064961
0.097018
0.103319
0.058092
0.043537
0.036878
0.043745
0.059324
0.061551
0.080148
0.073317
0.032316
0.035433
0.068354
0.016229
0.015006
0.044162
-0.000268
0.058136
0.090261
0.053416
0.026284
0.024043
0.025319
-0.036406
-0.015666
0.050273
0.033352
0.002092
0.006662
0.015494
-0.032181
-0.042015
0.013505
-0.007782
-0.023891
-0.013599
-0.001069
-0.041772
-0.039596
-0.021905
-0.009337
-0.015996
0.009996
0.039211
0.001778
0.016564
-0.026251
-0.011909
-0.030418
-0.022368
-0.004005
-0.019883
-0.012782
-0.029094
-0.057417
-0.034621
-0.047093
-0.021738
-0.040824
-0.028345
-0.022556
-0.016616
-0.012753
0.003691
0.029789
0.003615
-0.011350
0.036314
0.045610
0.007909
-0.035815
-0.063550
-0.008771
-0.005363
-0.012071
0.047103
0.052923
0.030206
0.016553
0.025093
-0.016561
-0.000790
-0.031164
0.008105
-0.008624
-0.018954
-0.031751
-0.063188
-0.045475
-0.024766
0.012283
0.072018
0.161455
0.246398
0.303819
0.421204
0.505112
0.593729
0.694582
0.781197
0.880488
0.900657
0.948490
0.963860
0.892407
0.802803
0.686777
0.518580
0.389532
0.235560
0.108671
0.040192
-0.055903
-0.145229
-0.142234
-0.171356
-0.178910
-0.140482
-0.104533
-0.067028
0.031788
0.037836
0.063906
0.081233
0.095321
0.033680
0.005360
0.041435
0.046730
0.054682
0.035312
0.048397
0.071184
0.034355
0.076431
0.064285
0.097014
0.108039
0.156348
0.195641
0.123921
0.105164
0.130896
0.168276
0.205152
0.149311
0.160945
0.138643
0.149739
0.153741
0.187066
0.217564
0.190585
0.222134
0.197013
0.185472
0.178730
0.228523
0.177635
0.219720
0.229808
0.226338
0.226129
0.264498
0.251121
0.234375
0.333667
0.317351
0.300045
0.284105
0.335423
0.282445
0.294075
0.300269
0.288025
0.263618
0.320934
0.321512
0.272561
0.286976
0.285016
0.262459
0.274954
0.272873
0.250665
0.271314
0.297259
0.284854
0.337142
0.330396
0.302897
0.298904
0.329551
0.298834
0.306216
0.327804
0.273626
0.231598
0.225133
0.248006
0.262065
0.251815
0.265654
0.244360
0.254138
0.213678
0.261502
0.245100
0.259199
0.224841
0.190607
0.173674
0.181053
0.142013
0.143362
0.102987
0.105052
0.097866
0.098273
0.088736
0.108889
0.086443
0.086542
0.087587
0.075772
0.050885
0.072584
0.112901
0.133497
0.151935
0.145775
0.111778
0.104817
0.034934
0.047506
0.070376
0.071910
0.047913
0.060482
0.037786
0.075450
0.039854
0.069568
0.062399
0.040849
-0.000902
0.005598
-0.060525
-0.022205
0.015339
0.047098
0.053292
0.022550
0.022021
0.027571
-0.003435
0.008235
0.050936
0.026561
-0.019585
-0.005186
-0.019767
-0.032672
-0.044577
0.012968
-0.017411
-0.049664
-0.042778
-0.039794
-0.054589
-0.041993
-0.002908
0.017003
-0.013761
-0.002042
0.005997
-0.017875
0.007298
-0.000467
0.041084
0.020367
0.064898
0.029264
-0.003188
-0.003437
0.033499
0.019433
0.023065
0.010178
0.030652
0.028826
0.010065
0.019781
0.024041
0.014543
-0.003682
0.012832
0.021683
0.011309
0.006215
0.002750
0.049661
0.016777
0.050251
0.000940
0.009184
0.021441
0.028701
0.020557
-0.014718
-0.040837
-0.041237
-0.048348
-0.019032
0.033007
-0.007781
0.044821
0.003978
-0.015491
0.036168
0.008701
-0.027263
0.028878
0.003936
0.001522
0.008447
0.018096
-0.040711
-0.027382
-0.083688
-0.059089
-0.009141
0.082254
0.117213
0.246248
0.408971
0.535677
0.659916
0.749349
0.826008
0.900333
0.937028
0.903952
0.911313
0.875728
0.780619
0.657660
0.540615
0.382687
0.279015
0.190606
0.025714
-0.031205
-0.089535
-0.140582
-0.160619
-0.143178
-0.176492
-0.141674
-0.110025
-0.070884
-0.040262
-0.000506
0.001107
0.049277
0.070502
0.064980
0.059637
0.089344
0.081265
0.133261
0.102210
0.092505
0.088806
0.096577
0.048294
0.104348
0.108248
0.111791
0.091581
0.123726
0.058105
0.113515
0.145588
0.158884
0.178797
0.176310
0.231695
0.204250
0.272383
0.261487
0.272084
0.294620
0.284292
0.226391
0.221860
0.230346
0.269498
0.207161
0.276899
0.242070
0.244846
0.279967
0.280241
0.234646
0.261680
0.268465
0.294113
0.305843
0.312601
0.305768
0.316099
0.303944
0.342318
0.322710
0.336403
0.377074
0.341653
0.314892
0.339354
0.326926
0.295803
0.257941
0.254088
0.235063
0.240401
0.249918
0.293013
0.253495
0.303602
0.291590
0.281915
0.327375
0.308565
0.321697
0.310444
0.294969
0.302752
0.262002
0.014292
-0.006741
0.026449
0.041089
0.034593
0.048912
0.042259
0.067707
0.032402
-0.015931
-0.078175
-0.085378
-0.051921
-0.036884
-0.056758
-0.003281
-0.012857
-0.002767
-0.000596
-0.023266
-0.023742
-0.020713
-0.038343
-0.031290
-0.014494
-0.010912
-0.020854
-0.055827
-0.075496
-0.055077
-0.035725
-0.039420
-0.023122
-0.018771
0.014688
-0.004835
-0.043204
-0.023721
0.038736
-0.015639
-0.043085
-0.009122
0.026782
0.003145
0.021185
0.066700
0.070463
0.026166
0.034714
0.021586
0.034864
-0.003191
-0.005094
0.003130
-0.033186
-0.052461
-0.032968
-0.002191
0.002807
-0.010389
0.003731
-0.022215
0.022637
-0.028243
-0.047387
-0.039060
-0.045753
-0.026103
-0.030787
0.066702
0.102313
0.144108
0.239658
0.339588
0.474616
0.574638
0.751003
0.855758
0.952226
0.991306
0.986682
0.925702
0.843849
0.762711
0.657805
0.504547
0.308179
0.208480
0.055727
-0.005121
-0.089810
-0.135740
-0.164095
-0.171167
-0.168857
-0.144049
-0.108675
-0.095792
-0.020790
0.019044
0.061336
0.075175
0.069862
0.076917
0.108360
0.111318
0.103159
0.107386
0.123697
0.089205
0.130708
0.111763
0.121589
0.131829
0.122147
0.122062
0.161823
0.146960
0.157551
0.188082
0.165887
0.187773
0.186244
0.160968
0.143306
0.155571
0.135849
0.148777
0.115109
0.182267
0.167076
0.212378
0.203951
0.180341
0.210943
0.209082
0.178406
0.201239
0.210056
0.220892
0.252046
0.261883
0.244982
0.257201
0.303296
0.235589
0.295048
0.286144
0.299743
0.276296
0.305976
0.329889
0.320303
0.337376
0.335152
0.317493
0.327474
0.335176
0.301124
0.292357
0.277133
0.280304
0.298710
0.281876
0.297555
0.296861
0.282412
0.284981
0.305983
0.349793
0.293722
0.309480
0.267176
0.267625
0.248390
0.265654
0.251049
0.282798
0.243320
0.265525
0.265710
0.226439
0.242467
0.195851
0.200038
0.168193
0.189878
0.198556
0.203107
0.261928
0.227069
0.224807
0.209465
0.185830
0.170879
0.196509
0.170770
0.158257
0.184573
0.121610
0.124522
0.099739
0.100521
0.104226
0.114735
0.074112
0.106370
0.066280
0.061085
0.095754
0.084078
0.074032
0.026122
0.055575
0.062893
0.053605
0.053913
0.033648
0.034915
-0.004356
0.005417
0.000786
0.025113
0.012695
0.001646
0.000137
-0.048441
-0.024479
0.007217
0.017302
0.017064
0.073635
0.028448
0.016337
0.041024
0.012372
0.008581
0.005621
0.055709
-0.006562
-0.010804
-0.018972
-0.011840
-0.020884
-0.029862
0.010492
-0.005454
0.056895
0.035478
0.069734
0.038232
0.046977
-0.009056
0.030446
0.025642
0.035274
0.001339
0.022684
0.006333
-0.013527
-0.017844
0.024651
0.013766
0.026854
0.008597
-0.019102
-0.008772
0.010466
-0.009782
0.007553
0.013924
-0.007706
-0.005038
0.013693
0.032162
0.023022
0.024837
0.001030
0.013518
-0.002642
0.024641
0.011499
0.017733
0.004896
0.022588
0.055444
0.022804
0.021421
0.047786
0.031611
0.046609
0.033082
0.046814
0.012376
-0.012266
0.002503
-0.036498
-0.069880
-0.063338
-0.047584
-0.062454
-0.032240
0.002203
-0.017498
0.011011
0.032208
0.033196
0.061947
0.115529
0.067150
0.032157
-0.007558
-0.030089
-0.015981
-0.050852
-0.072093
-0.085029
-0.117691
-0.143917
-0.093133
-0.122834
-0.033128
0.028018
0.120647
0.234540
0.346315
0.440178
0.636362
0.717440
0.827001
0.914995
0.968136
0.952478
0.902546
0.831233
0.757801
0.667831
0.535929
0.354190
0.226059
0.107526
0.036120
-0.053394
-0.057780
-0.112862
-0.089492
-0.075078
-0.069137
-0.053783
0.003776
-0.016403
0.020890
0.039173
-0.008746
0.033867
0.063079
0.037578
0.035695
0.071600
0.085993
0.097401
0.102645
0.126032
0.147570
0.150617
0.128019
0.109127
0.100154
0.113932
0.124792
0.120394
0.125189
0.146007
0.129461
0.159867
0.155506
0.178124
0.172039
0.199805
0.201284
0.227813
0.273320
0.206880
0.231511
0.227183
0.191067
0.166253
0.237624
0.232200
0.219059
0.222045
0.279679
0.230733
0.274684
0.289294
0.294825
0.304848
0.298194
0.300258
0.291490
0.296334
0.267277
0.275399
0.276788
0.274216
0.263390
0.235845
0.227182
0.261173
0.264319
0.299069
0.353506
0.310306
0.329041
0.301741
0.263481
0.254397
0.265872
0.261044
0.279157
0.308041
0.312888
0.303112
0.269576
0.247095
0.243430
0.188999
0.217852
0.207517
0.212407
0.229476
0.228831
0.216305
0.215181
0.230547
0.230924
0.204523
0.206285
0.256513
0.245440
0.220605
0.194771
0.208950
0.140919
0.137713
0.137955
0.129701
0.127765
0.122328
0.164869
0.165727
0.142221
0.121578
0.171942
0.142318
0.100541
0.142010
0.095251
0.077696
0.082856
0.086097
0.076440
0.067977
0.081663
0.068330
0.055274
0.118016
0.023655
0.052611
0.045545
0.045709
0.032598
0.002631
-0.033686
-0.047381
-0.017174
0.015632
-0.049401
-0.008156
-0.043070
-0.078091
-0.045876
-0.035895
-0.060017
0.008889
0.000022
-0.025421
0.007195
0.038074
0.000496
0.010353
0.036110
0.046817
0.053823
0.037649
0.045786
-0.007063
-0.031610
-0.114183
-0.059299
-0.064417
-0.003000
-0.013377
0.006224
0.034021
0.027785
0.021752
0.033633
0.010651
0.012673
-0.025031
-0.026630
-0.004500
-0.025478
0.019299
-0.003942
0.022896
0.057792
0.045513
0.040242
0.017403
0.035789
0.053175
0.031778
0.052833
0.046166
0.024562
0.021312
0.004400
-0.018707
-0.052750
-0.059919
-0.081895
-0.070233
-0.039176
0.056991
0.040866
0.150629
0.181466
0.230178
0.333687
0.482370
0.582236
0.717123
0.825923
0.920787
0.948831
0.952770
0.913155
0.821474
0.761906
0.678550
0.513117
0.380340
0.242014
0.117292
-0.006225
-0.077557
-0.113331
-0.178532
-0.163192
-0.172669
-0.130356
-0.121896
-0.131915
-0.078460
-0.013894
-0.015808
0.035116
0.012167
0.049290
0.046031
0.092106
0.099164
0.109856
0.077659
0.088316
0.132394
0.138995
0.094707
0.075676
0.087226
0.057987
0.087119
0.096694
0.121626
0.149835
0.169278
0.187329
0.214202
0.207772
0.194397
0.205684
0.191199
0.215001
0.200918
0.224171
0.179565
0.188940
0.197240
0.206773
0.176535
0.202148
0.200231
0.196024
0.237187
0.257184
0.274376
0.300286
0.275919
0.297113
0.312856
0.302441
0.266139
0.309340
0.306294
0.279743
0.302459
0.259396
0.289030
0.248794
0.278343
0.278358
0.333063
0.356661
0.312883
0.259551
0.288728
0.288024
0.282763
0.253589
0.230337
0.269820
0.244076
0.267547
0.289765
0.287498
0.248066
0.214698
0.245196
0.237306
0.253675
0.280160
0.255648
0.252261
0.267739
0.284205
0.247178
0.218091
0.221629
0.189538
0.197760
0.176858
0.198460
0.190467
0.181049
0.151134
0.153256
0.136859
0.182251
0.150587
0.169887
0.098690
0.105830
0.107112
0.046750
0.054547
0.100028
0.066568
0.032569
0.045570
0.067790
0.095133
0.104059
0.098047
0.108304
0.156040
0.115530
0.117720
0.129191
0.124298
0.113484
0.078162
0.126772
0.070606
0.106283
0.088660
0.042396
0.032607
0.047035
0.019297
0.025723
0.044705
0.029655
0.000659
0.021517
0.002752
-0.007174
-0.002228
0.002520
0.051661
-0.005000
0.010981
0.022011
-0.019921
-0.053421
0.005628
0.005903
0.043588
0.010759
0.056598
-0.010006
-0.028403
-0.042012
-0.014192
-0.058738
-0.012706
0.014245
-0.017367
-0.053442
-0.044435
-0.036885
-0.032867
-0.009350
-0.046245
-0.030597
-0.007746
0.013883
-0.012534
-0.008655
-0.018599
-0.013140
-0.032158
-0.005394
-0.046024
-0.019145
-0.047244
-0.016181
-0.017661
0.043330
0.033252
0.036257
0.029015
0.016843
0.017364
0.034822
0.027699
-0.009520
0.019205
0.031446
0.047373
0.012831
0.003432
-0.030153
-0.000962
-0.013129
0.016137
-0.001298
-0.004599
-0.021308
-0.028656
-0.028522
-0.006572
-0.032467
-0.018432
-0.040526
-0.035754
0.017508
0.022116
-0.010822
-0.025338
0.033977
-0.022947
-0.040902
-0.036326
-0.025888
-0.019106
-0.040809
-0.022435
0.003316
-0.056652
-0.014818
-0.041596
-0.046943
-0.006868
0.018529
-0.015892
-0.015250
-0.003291
0.008082
-0.000565
0.016508
-0.019804
-0.030818
-0.053448
-0.061657
-0.025033
-0.088028
-0.020746
-0.018950
-0.034388
-0.014804
0.069100
0.111858
0.231224
0.290401
0.429296
0.535292
0.629088
0.750917
0.800100
0.923567
1.042260
0.950451
0.950473
0.866616
0.732928
0.571702
0.506890
0.364587
0.204697
0.081838
-0.015318
-0.094603
-0.150915
-0.144812
-0.186175
-0.135055
-0.079857
-0.066209
-0.073805
-0.038459
-0.018311
-0.017727
0.050303
0.056809
0.038979
0.098833
0.033263
0.077463
0.077319
0.137633
0.090749
0.119880
0.117077
0.128998
0.093114
0.160576
0.170479
0.168133
0.161967
0.189707
0.188266
0.202935
0.164894
0.172106
0.191507
0.191831
0.192100
0.180122
0.186830
0.169455
0.147509
0.179364
0.194263
0.231538
0.216566
0.237121
0.282380
0.232600
0.232375
0.207113
0.233511
0.231732
0.242826
0.251867
0.271916
0.275967
0.300931
0.284559
0.292977
0.303685
0.319014
0.341618
0.284592
0.314711
0.300071
0.306805
0.307937
0.358093
0.319491
0.315488
0.326231
0.282464
0.280274
0.284096
0.321894
0.323996
0.328942
0.300784
0.329898
0.287265
0.275349
0.286284
0.316169
0.291456
0.278406
0.329006
0.345676
0.320919
0.285085
0.286024
0.277052
0.207871
0.279214
0.230670
0.216815
0.240515
0.235198
0.212097
0.213335
0.232509
0.187869
0.210202
0.215826
0.211965
0.158399
0.179744
0.143184
0.113087
0.087407
0.110426
0.122905
0.119363
0.077432
0.081454
0.048722
0.019168
0.048404
0.082623
0.121148
0.115369
0.095498
0.122968
0.078620
0.028363
0.027161
0.035859
0.007076
-0.033856
-0.000773
-0.014278
-0.031619
-0.038175
0.001056
-0.025816
0.008611
-0.015678
-0.019533
0.008405
0.021872
0.026677
0.057465
0.047409
-0.002365
-0.004122
0.018749
0.040813
0.010338
0.007392
0.016258
-0.029003
-0.079118
-0.061579
0.004570
-0.005432
0.000189
0.047259
0.031444
0.002474
0.064219
0.018671
0.018767
0.055119
0.015308
-0.010849
0.016737
0.002857
-0.022374
-0.027787
-0.045024
-0.020200
-0.037345
-0.000573
-0.010953
-0.011162
0.004945
-0.002854
-0.048897
-0.016020
0.015781
-0.021834
-0.000761
0.003704
0.002800
-0.001722
0.012773
-0.016053
-0.012727
-0.032776
-0.033638
-0.043671
-0.064724
-0.027594
-0.052646
0.002512
-0.004214
0.016594
0.027143
0.023990
0.095015
0.116839
0.185066
0.252834
0.407993
0.502714
0.636599
0.753206
0.856904
0.918373
0.970545
0.979997
0.962333
0.920734
0.780104
0.647446
0.547179
0.417036
0.241536
0.152818
0.067921
0.008363
-0.045540
-0.089397
-0.076626
-0.095804
-0.151399
-0.093693
-0.074354
-0.063393
-0.022524
0.065289
0.036909
0.062724
0.058142
0.038472
0.022119
0.047359
0.051929
0.070310
0.101373
0.049252
0.082334
0.080295
0.114868
0.113738
0.135350
0.168063
0.156625
0.111417
0.136658
0.164691
0.159282
0.171814
0.165956
0.173144
0.178664
0.178910
0.150534
0.179661
0.200913
0.233276
0.248771
0.250043
0.253731
0.202113
0.223191
0.213293
0.241016
0.205355
0.188949
0.220573
0.209972
0.191645
0.244899
0.243866
0.278027
0.269953
0.296614
0.337888
0.261723
0.309357
0.312901
0.352017
0.334540
0.326123
0.320544
0.321628
0.300323
0.254689
0.292629
0.304719
0.294187
0.270609
0.310967
0.295351
0.310738
0.284507
0.329590
0.344975
0.354472
0.341606
0.351383
0.324097
0.334359
0.283299
0.238218
0.240396
0.234435
0.183256
0.162132
0.202019
0.172624
0.206572
0.217722
0.228893
0.224624
0.196720
0.213597
0.181878
0.182193
0.105890
0.199628
0.162702
0.177195
0.150466
0.167327
0.119553
0.101888
0.093413
0.096548
0.067918
0.064967
0.108580
0.103553
0.065386
0.047269
0.068840
0.033437
0.055514
0.044058
0.069234
0.079428
0.091341
0.047925
0.077768
0.073952
0.021109
0.013902
0.006317
-0.026340
-0.046349
-0.055664
0.004123
0.017874
0.008417
0.015747
0.015227
0.016147
0.010830
0.027162
-0.039366
-0.041146
-0.030770
-0.065916
-0.049701
-0.054367
-0.040699
-0.057037
-0.044009
-0.042391
-0.036432
-0.025689
-0.022507
0.034281
0.000184
-0.003860
0.015073
-0.031113
-0.066663
-0.047330
-0.035714
-0.060615
0.012085
-0.002502
0.041927
0.061507
0.031372
-0.008008
0.006156
-0.011420
0.019513
-0.007658
0.005740
0.041795
0.018859
0.056782
0.015073
-0.039696
-0.017729
-0.025941
-0.042710
-0.015758
0.012150
0.001558
0.000365
-0.024904
0.007588
0.014213
-0.008658
-0.017281
-0.038709
-0.077993
-0.033795
-0.013383
-0.019274
-0.000027
0.026249
0.019009
0.048509
0.042080
0.119161
0.198614
0.372635
0.481119
0.631884
0.785496
0.885017
0.925125
0.944806
0.962563
0.935590
0.888574
0.769472
0.671790
0.546672
0.423775
0.254397
0.181533
0.085734
0.013806
-0.016128
-0.074415
-0.115270
-0.102511
-0.094250
-0.053619
-0.034623
-0.014152
0.022627
0.002920
0.032527
0.058121
0.059305
0.081482
0.074606
0.044450
0.086770
0.077218
0.051860
0.072558
0.075012
0.089999
0.042613
0.083565
0.115435
0.126915
0.162996
0.149351
0.143878
0.164167
0.158443
0.179981
0.193481
0.181977
0.183032
0.211074
0.205336
0.168958
0.177806
0.181634
0.214496
0.180638
0.215610
0.267570
0.225874
0.246979
0.225097
0.209976
0.172698
0.224028
0.250760
0.273491
0.308387
0.288509
0.322316
0.279678
0.232987
0.292717
0.252694
0.267734
0.277458
0.283771
0.269097
0.259612
0.227899
0.283363
0.255798
0.308758
0.279548
0.315693
0.305277
0.294094
0.274884
0.276428
0.282970
0.283494
0.285280
0.260620
0.278381
0.228691
0.241224
0.263590
0.237065
0.261364
0.256299
0.248697
0.245152
0.221027
0.200425
0.237926
0.225672
0.226232
0.181337
0.224764
0.199706
0.203136
0.213037
0.188588
0.189341
0.176394
0.159010
0.145141
0.155191
0.137718
0.108460
0.108872
0.080971
0.102737
0.093788
0.073203
0.131545
0.092827
0.091123
0.148612
0.121591
0.073115
0.079357
0.084196
0.020255
0.000524
-0.025059
0.026543
0.005696
0.024472
0.022620
0.031123
0.015255
0.017102
0.009979
0.006198
0.059130
0.029022
-0.007028
0.001691
0.027233
-0.007350
-0.011872
0.018416
0.028896
0.027490
0.035512
0.022194
0.000731
-0.022521
-0.011716
0.022581
0.027065
0.054090
0.070373
0.049407
0.028389
-0.008352
0.010874
-0.002419
0.016399
0.000639
0.005654
-0.011852
0.034582
0.021563
0.068053
-0.014036
-0.007622
-0.026690
-0.008294
-0.043272
-0.004772
-0.006949
0.000629
0.006777
0.022081
0.017978
0.010129
-0.015933
-0.039888
-0.061079
-0.053699
-0.030695
-0.060880
-0.034681
-0.028941
-0.022410
0.008511
-0.055583
-0.025642
-0.000902
-0.033362
-0.011249
0.025224
-0.000078
-0.032695
0.037151
0.034562
0.024526
0.037151
-0.046443
-0.025213
-0.013107
-0.018525
-0.007883
-0.024914
-0.028696
-0.004562
-0.029599
0.010975
-0.051951
-0.052937
-0.032318
0.006493
-0.055674
-0.017623
0.003679
-0.015353
-0.013545
-0.017941
-0.019847
-0.059251
-0.038680
-0.006072
-0.009756
0.040004
0.051539
0.003734
0.031280
0.051569
0.024362
-0.001781
-0.029987
-0.078898
-0.046671
-0.027519
-0.013035
-0.008544
-0.000416
0.027786
0.000205
-0.011135
-0.031110
0.022835
0.025093
0.009161
0.009118
0.036441
0.002124
0.008097
0.009894
0.044056
-0.025088
-0.046960
-0.036935
-0.050283
-0.038866
-0.013437
-0.017798
-0.010507
0.063040
0.128204
0.129660
0.220839
0.320259
0.448664
0.584918
0.698106
0.792974
0.901391
0.958611
0.969586
0.939151
0.910758
0.814708
0.662167
0.540113
0.431256
0.282082
0.162747
0.078037
-0.009125
-0.089807
-0.125385
-0.118363
-0.122717
-0.103174
-0.045342
-0.065758
-0.047892
-0.016279
-0.027308
0.007879
0.004971
0.054488
0.070198
0.096493
0.076411
0.075990
0.066590
0.059608
0.099641
0.107186
0.109948
0.099312
0.123871
0.121309
0.109030
0.108282
0.133443
0.105248
0.090544
0.136768
0.096162
0.105051
0.104137
0.160614
0.176043
0.210418
0.247372
0.238251
0.254188
0.268752
0.292230
0.271401
0.246548
0.215392
0.210935
0.178045
0.171009
0.194531
0.200378
0.230327
0.217205
0.260183
0.284121
0.327723
0.352146
0.346114
0.330528
0.267959
0.247653
0.232905
0.220857
0.224577
0.272931
0.261466
0.255897
0.238731
0.233185
0.248579
0.248945
0.312768
0.310864
0.305581
0.288339
0.311049
0.304442
0.300257
0.309700
0.252466
0.255825
0.264280
-0.035782
-0.008712
-0.013030
-0.057821
-0.031876
-0.007840
-0.021931
-0.005893
0.018061
0.035288
0.030458
-0.007641
-0.017864
0.014620
-0.016898
0.029299
0.056551
0.030902
-0.002493
-0.032708
-0.057976
-0.072736
-0.062479
-0.019725
-0.017589
-0.002647
-0.007124
0.069987
0.014044
-0.003546
0.060580
0.059857
0.043844
0.053693
0.031629
-0.002013
0.002655
-0.008450
0.008304
-0.040055
-0.017656
-0.014684
-0.017119
0.016459
0.002960
0.015770
0.054467
0.054835
0.073695
0.094069
0.072950
0.033487
0.046818
0.012851
-0.007331
0.006724
0.013853
0.039627
0.010963
0.000055
-0.009689
-0.004703
-0.032106
-0.038445
-0.042567
-0.079336
-0.053733
-0.032914
-0.015642
0.020602
0.121120
0.176811
0.324127
0.388049
0.552664
0.654976
0.704073
0.831911
0.877099
0.951000
0.931540
0.935695
0.843130
0.773081
0.658511
0.503032
0.418155
0.247742
0.130138
0.009727
-0.080076
-0.115593
-0.127586
-0.158182
-0.099792
-0.077534
-0.085594
-0.072813
-0.007277
-0.035639
0.011327
0.014111
0.078588
0.076533
0.101231
0.105122
0.099118
0.077073
0.094866
0.136380
0.122657
0.129708
0.145644
0.122064
0.100094
0.071471
0.104497
0.107670
0.148091
0.136272
0.146701
0.177815
0.174592
0.206107
0.175555
0.179878
0.174246
0.201586
0.159537
0.189479
0.238104
0.189310
0.230840
0.257660
0.293548
0.270379
0.232101
0.237330
0.242069
0.229147
0.263892
0.246271
0.270982
0.282714
0.286265
0.234262
0.319103
0.293993
0.299145
0.315912
0.318845
0.335683
0.307187
0.320735
0.289322
0.273235
0.238431
0.272093
0.345465
0.315683
0.321310
0.341505
0.329311
0.302365
0.300773
0.333340
0.338463
0.294599
0.305695
0.303593
0.247130
0.246315
0.290116
0.267408
0.230247
0.256516
0.298772
0.253996
0.263612
0.239190
0.180863
0.221901
0.186226
0.196881
0.195571
0.174236
0.146410
0.157940
0.151407
0.149527
0.171473
0.145841
0.118566
0.115099
0.106915
0.130536
0.123479
0.073239
0.118295
0.089331
0.106454
0.068076
0.077547
0.093763
0.093417
0.071570
0.101851
0.154670
0.109066
0.087017
0.097909
0.118304
0.031997
0.037448
0.044230
0.000943
-0.012384
0.012263
-0.028151
-0.005820
-0.003483
-0.034060
-0.012951
-0.009735
0.017657
-0.019001
-0.035051
-0.024556
-0.049017
-0.058789
-0.040123
-0.032366
-0.009495
-0.032365
0.009916
0.046015
0.006855
0.017274
-0.016622
-0.028412
-0.009927
-0.004782
0.014302
0.022797
-0.010727
0.039579
0.044399
0.046877
0.037014
0.026326
0.047706
0.036348
-0.039254
-0.023600
-0.012976
-0.002001
-0.002266
0.030575
0.001663
0.020393
0.002551
-0.015254
0.044038
0.033659
0.015827
-0.022333
-0.000424
0.010638
-0.028647
-0.065979
-0.013714
0.003802
-0.031918
-0.047559
-0.031824
-0.082149
-0.079434
-0.063985
-0.085364
-0.069503
-0.066864
-0.057780
-0.045911
-0.016071
-0.031367
0.052298
0.134454
0.244983
0.366467
0.501774
0.622068
0.784321
0.812155
0.917976
0.935546
0.959579
0.880505
0.815180
0.728288
0.616890
0.456011
0.310354
0.190030
0.108583
-0.012995
-0.021590
-0.092475
-0.110040
-0.102650
-0.091388
-0.071306
-0.039602
-0.010250
0.007906
0.017688
0.047644
0.022285
0.032026
0.003783
0.040345
0.023883
0.049835
0.085762
0.095152
0.112895
0.114293
0.127553
0.137109
0.113650
0.133102
0.182122
0.181253
0.163399
0.150940
0.197993
0.169096
0.210325
0.164297
0.155589
0.108835
0.149036
0.147028
0.156178
0.185816
0.202934
0.254889
0.253742
0.241773
0.242282
0.255478
0.224887
0.248280
0.246631
0.237055
0.266922
0.280548
0.294812
0.278309
0.357392
0.324478
0.287116
0.282290
0.268820
0.260018
0.236910
0.252144
0.243450
0.277103
0.255725
0.272202
0.262328
0.287855
0.246623
0.303008
0.271044
0.252408
0.247069
0.244101
0.198454
0.270248
0.274584
0.337368
0.256197
0.283736
0.299685
0.301830
0.284850
0.264059
0.268106
0.259775
0.233992
0.226002
0.256080
0.288065
0.254430
0.271567
0.273986
0.260846
0.259821
0.269988
0.273787
0.263241
0.236009
0.061700
-0.002128
-0.022183
0.011857
0.020600
0.042801
0.023422
0.043631
0.063742
0.037404
0.005437
0.039096
0.024118
-0.008752
0.003410
0.009511
-0.019638
0.044873
-0.000680
0.011006
-0.025156
-0.003673
0.011529
0.017115
-0.000453
0.010163
0.035002
0.043549
0.006717
-0.016181
-0.015196
-0.020275
-0.028330
-0.039214
-0.010314
0.004852
-0.019959
-0.005979
0.020150
-0.007022
0.033257
0.030591
0.015713
0.023938
-0.007805
-0.020865
-0.032681
-0.027626
-0.036809
-0.046145
-0.074223
-0.029282
0.002355
-0.022206
-0.010376
-0.022591
0.038611
0.024734
0.002916
0.023349
0.069324
-0.035175
-0.007920
-0.033294
-0.021828
-0.003742
-0.035113
-0.028860
0.012121
0.064973
0.077566
0.142996
0.238830
0.364925
0.437863
0.593364
0.708861
0.778938
0.844931
0.932749
0.921736
0.930354
0.879096
0.736938
0.612164
0.479698
0.372842
0.232834
0.138418
0.072633
-0.032973
-0.083398
-0.155873
-0.128402
-0.153596
-0.137890
-0.102282
-0.073674
-0.032478
-0.027839
-0.007824
0.052550
0.056615
0.091568
0.068115
0.091061
0.109610
0.104860
0.077903
0.086990
0.073902
0.068226
0.082244
0.140490
0.129318
0.132893
0.140817
0.195833
0.126069
0.098070
0.165116
0.165208
0.119995
0.175754
0.159839
0.160955
0.207633
0.191276
0.208622
0.237642
0.260040
0.009156
0.004485
-0.018924
0.015970
-0.042187
-0.019137
-0.021779
-0.033638
0.012883
-0.016030
0.001255
0.009505
0.029069
-0.026177
0.011788
0.018480
0.044560
0.023221
-0.007804
-0.015990
-0.007814
-0.046943
-0.029970
0.011772
0.026078
-0.006065
-0.001889
-0.026934
-0.019179
-0.060422
-0.020382
-0.039617
-0.044474
-0.012074
0.023773
-0.002197
-0.021596
-0.031877
-0.015822
-0.064159
-0.074193
-0.054349
-0.045377
0.011050
0.035292
0.018678
0.050084
0.051356
0.065889
-0.004230
0.020175
0.003664
-0.006046
-0.023628
-0.001949
-0.020495
-0.024562
-0.021310
0.024428
0.071305
0.102388
0.062973
0.045841
0.013603
-0.017494
-0.045313
-0.047171
-0.090680
-0.033895
-0.017200
0.093490
0.175627
0.218691
0.339452
0.451345
0.548414
0.703987
0.858105
0.919429
0.980750
0.994896
0.924328
0.853569
0.750150
0.594149
0.459896
0.318595
0.195789
0.074632
-0.028451
-0.041499
-0.121017
-0.113153
-0.127252
-0.143173
-0.152998
-0.129111
-0.090977
-0.085147
-0.009787
0.035241
0.010842
0.021693
0.025238
0.039220
0.069356
0.070420
0.071118
0.108031
0.097226
0.087127
0.100982
0.137095
0.081959
0.057101
0.073577
0.058710
0.050871
0.093658
0.131257
0.152863
0.180838
0.217573
0.225721
0.200375
0.210713
0.223952
0.232921
0.245712
0.214328
0.226744
0.224050
0.252818
0.222533
0.233280
0.268801
0.238380
0.246925
0.235948
0.294340
0.272870
0.332213
0.329768
0.295695
0.268425
0.299924
0.270109
0.272794
0.241188
0.274682
0.258545
0.287923
0.282048
0.259288
0.293398
0.279083
0.283396
0.360334
0.317494
0.323953
0.347123
0.332590
0.335871
0.317828
0.328302
0.313108
0.290929
0.284318
0.305671
0.296549
0.298087
0.305255
0.309876
0.332709
0.294127
0.346265
0.284460
0.263076
0.241049
0.228060
0.194587
0.191614
0.227174
0.221101
0.213141
0.257631
0.213139
0.195228
0.194406
0.183103
0.235035
0.184448
0.179596
0.179585
0.125325
0.135387
0.100807
0.092059
0.083064
0.092224
0.022086
0.004151
-0.007823
-0.037422
-0.048859
-0.044389
-0.035302
0.036800
0.036198
0.059302
0.032935
0.022531
0.015740
0.024712
0.022989
0.103490
0.047296
0.009324
-0.004137
-0.038313
-0.024258
-0.008203
0.022180
0.026377
-0.008879
-0.003288
-0.015689
-0.056413
-0.021068
0.022172
0.000787
-0.032982
-0.030529
-0.015294
0.007506
0.009694
0.061051
0.059691
0.035942
0.010713
-0.030286
-0.058430
-0.036367
-0.029324
-0.077424
-0.057203
-0.040282
-0.043807
-0.020880
-0.039539
-0.030762
-0.022906
-0.021166
-0.030724
-0.024410
-0.031544
-0.040094
-0.025507
0.002485
-0.016553
0.007718
-0.008817
0.010333
0.001124
-0.022874
-0.019515
-0.057055
-0.063081
-0.015787
0.028072
0.135967
0.230811
0.355998
0.413520
0.517840
0.608165
0.740241
0.819804
0.905871
0.972921
0.972386
0.937024
0.855493
0.738209
0.607138
0.494445
0.320068
0.180718
0.104800
-0.042164
-0.138204
-0.144941
-0.170286
-0.203079
-0.158744
-0.122096
-0.113943
-0.082817
0.005092
0.006592
0.033942
0.035484
0.024360
0.042405
0.079661
0.095921
0.101190
0.130360
0.151306
0.125961
0.123262
0.148004
0.099244
0.048928
0.043328
0.087074
0.059794
0.129181
0.142203
0.155515
0.138555
0.139918
0.120574
0.146174
0.100031
0.093082
0.154253
0.176239
0.187898
0.152756
0.213701
0.252143
0.230402
0.207264
0.230839
0.264569
0.221126
0.228665
0.244928
0.248872
0.239151
0.279207
0.309225
0.329033
0.316147
0.333758
0.335998
0.302637
0.298571
0.297506
0.258965
0.265862
0.294163
0.298084
0.270268
0.264566
0.265265
0.261643
0.274953
0.271379
0.281445
0.258836
0.277852
0.272495
0.260043
0.249139
0.242836
0.289089
0.244696
0.265355
0.265465
0.291047
0.280853
0.271676
0.309442
0.296060
0.281552
0.281224
0.292014
0.210843
0.224145
0.018825
0.029484
0.059717
0.078991
0.068645
0.074541
0.012411
0.004361
0.002379
0.040387
0.068741
0.079974
0.068729
0.035812
-0.020321
-0.049809
-0.048689
-0.075692
-0.006116
-0.040670
0.000843
0.008569
-0.021732
-0.006481
0.020504
0.030763
0.013000
-0.003235
0.002925
-0.009461
-0.006895
0.003376
-0.016057
-0.029338
-0.037651
-0.027279
-0.057287
-0.026976
-0.036879
-0.042333
-0.071488
-0.048182
-0.030312
-0.075140
-0.050171
-0.035839
-0.032429
-0.013215
-0.018810
-0.014115
0.010712
-0.031024
-0.028591
0.008316
-0.035771
-0.043634
-0.010774
-0.037894
-0.072607
-0.026007
-0.050922
0.015260
-0.003145
-0.019576
-0.004858
-0.039093
-0.052825
-0.032286
0.015466
0.026937
0.062314
0.180671
0.284464
0.378191
0.555206
0.646346
0.728419
0.799609
0.846041
0.895532
0.892874
0.847539
0.830049
0.747048
0.644546
0.510945
0.368094
0.187289
0.032220
-0.018337
-0.068652
-0.119843
-0.152803
-0.156451
-0.126881
-0.140659
-0.111046
-0.068211
-0.076821
-0.015775
0.001690
0.056734
0.053728
0.081405
0.109462
0.057581
0.065602
0.110111
0.128542
0.162257
0.121953
0.149143
0.075221
0.123348
0.146769
0.181287
0.189542
0.204514
0.168881
0.160571
0.146848
0.100879
0.149432
0.176192
0.165831
0.170060
0.167951
0.125860
0.124710
0.172833
0.187925
0.142155
0.181775
0.218428
0.197612
0.252150
0.212701
0.243724
0.242168
0.241545
0.277730
0.299553
0.317300
0.294041
0.311024
0.285071
0.281044
0.304348
0.335254
0.347997
0.374557
0.350576
0.342688
0.354466
0.337843
0.304632
0.339071
0.356858
0.377512
0.340323
0.301449
0.277764
0.252336
0.276387
0.295685
0.282356
0.295421
0.336957
0.266967
0.254360
0.264439
0.246209
0.246359
0.238559
0.248642
0.213677
0.171801
0.187238
0.221079
0.201148
0.220326
0.220257
0.242646
0.253817
0.219156
0.223371
0.219421
0.181369
0.196026
0.202507
0.153740
0.135723
0.155975
0.160804
0.134345
0.143839
0.154308
0.133459
0.101600
0.143767
0.118505
0.137869
0.129045
0.145011
0.120771
0.149136
0.130159
0.137508
0.156874
0.095767
0.010999
-0.022151
0.001051
0.016096
-0.001504
-0.070837
-0.037389
-0.049347
-0.009749
-0.029137
-0.007890
0.014889
-0.004338
-0.011739
-0.005320
-0.019372
-0.010631
0.036848
0.026998
-0.000991
-0.015320
-0.027869
-0.053554
0.001579
-0.030134
-0.014467
-0.006353
0.012472
-0.013383
-0.005343
-0.012743
0.000820
0.015342
0.017284
-0.042324
-0.052111
-0.080639
-0.044380
