0.016809
0.001018
-0.013811
-0.003720
0.020512
-0.008632
0.003376
0.009573
-0.003901
0.004071
0.003341
0.017853
0.034533
0.001620
0.036780
0.015402
0.039492
0.060575
0.059677
0.052971
0.066078
0.076541
0.081357
0.070616
0.107441
0.113768
0.127714
0.129688
0.120931
0.178233
0.139282
0.148135
0.130509
0.162109
0.158569
0.141945
0.154834
0.127372
0.146460
0.131736
0.118854
0.111909
0.107792
0.069083
0.063476
0.034526
0.053414
0.052441
0.035520
0.021172
0.038554
0.029740
0.046513
0.024874
0.020429
-0.000827
-0.024798
-0.016384
0.009858
-0.017484
-0.052402
-0.047429
-0.037534
-0.053739
-0.036384
-0.033452
-0.064506
-0.038544
-0.036188
-0.046301
-0.029699
-0.000162
-0.004843
0.079582
0.077094
0.104860
0.172066
0.257790
0.290044
0.400902
0.423488
0.540010
0.592175
0.671326
0.750704
0.823991
0.864891
0.936771
0.940046
0.952976
0.979717
0.966348
0.941085
0.927895
0.873006
0.805609
0.738593
0.653583
0.603564
0.527082
0.418202
0.341427
0.282733
0.218075
0.179464
0.140924
0.061899
0.041739
0.000675
0.016088
0.023993
0.034044
0.066573
0.064111
0.118870
0.148668
0.193117
0.227060
0.239640
0.300891
0.383091
0.396457
0.452782
0.469982
0.516359
0.552903
0.560194
0.566773
0.638621
0.619451
0.624621
0.614550
0.641769
0.599794
0.585514
0.562287
0.559143
0.554192
0.547254
0.518721
0.490438
0.491843
0.453919
0.454151
0.415106
0.384011
0.378576
0.368388
0.356847
0.350212
0.357410
0.327317
0.345055
0.340032
0.329481
0.322585
0.317130
0.284786
0.311684
0.303714
0.295039
0.298578
0.297407
0.307600
0.297058
0.274104
0.281879
0.288774
0.281018
0.312075
0.269330
0.267804
0.270030
0.261673
0.249434
0.275400
0.273448
0.280013
0.225630
0.247786
0.238546
0.233588
0.218782
0.207060
0.195557
0.192911
0.226917
0.204819
0.184220
0.180861
0.150220
0.166752
0.188005
0.151509
0.138266
0.139466
0.131025
0.133017
0.131261
0.176022
0.114283
0.111750
0.109101
0.106660
0.113258
0.103433
0.078784
0.087155
0.079648
0.104208
0.051994
0.061361
0.088032
0.081302
0.084035
0.067842
0.027769
0.037914
0.048844
0.044857
0.049518
0.037269
0.042223
0.039913
0.028523
0.030919
0.012104
0.043444
0.019612
0.009647
0.031054
0.033223
-0.000983
0.020874
0.008981
0.032278
0.005267
0.006172
0.019019
0.015413
0.005759
0.000318
0.007116
0.009164
0.014107
-0.019104
0.006572
0.007799
0.043104
-0.004953
-0.004064
0.011214
-0.008643
-0.009382
0.006053
0.000200
0.004909
-0.003408
-0.005315
0.004124
0.010803
-0.016096
-0.008675
0.016457
-0.005296
-0.014011
-0.007119
0.007180
-0.007410
0.008932
-0.000491
0.007510
-0.005129
0.011320
0.015315
0.015319
-0.004106
0.011793
-0.002201
-0.023346
-0.014370
-0.021577
0.013851
-0.012937
-0.022029
0.013201
-0.036845
0.002820
-0.010566
0.033302
-0.008884
-0.000539
0.019155
0.015812
0.023890
0.033880
-0.011250
-0.002970
0.003378
0.019149
-0.013971
-0.028018
0.004953
0.035783
0.021586
-0.022564
-0.003579
-0.001896
0.043872
0.004471
0.012856
-0.016965
0.022170
0.032524
-0.007183
0.021879
-0.008577
0.023999
-0.008265
-0.001234
0.017659
-0.002125
0.037930
-0.031572
0.011182
0.000627
-0.019018
-0.004175
0.023183
-0.002583
0.039834
-0.000369
0.041585
0.040980
0.025007
0.055748
0.051684
0.060745
0.048826
0.068169
0.069504
0.068050
0.081621
0.090179
0.121589
0.134728
0.090297
0.133637
0.130932
0.148158
0.134477
0.123857
0.165257
0.144422
0.146719
0.131490
0.138008
0.112106
0.130452
0.124131
0.104628
0.117830
0.092680
0.083607
0.055860
0.093221
0.033558
0.021699
0.039890
0.050005
0.041485
0.020222
-0.004443
0.022890
0.018603
0.012492
-0.034216
-0.000296
-0.009144
-0.021231
-0.035189
-0.013995
-0.043532
-0.029575
-0.005701
-0.045888
-0.042536
-0.036516
-0.016963
-0.033425
-0.008517
-0.014031
0.048612
0.034873
0.108379
0.113413
0.178307
0.248797
0.303341
0.384420
0.458027
0.498421
0.610560
0.675005
0.736323
0.801770
0.859766
0.922591
0.955187
1.012235
0.951622
0.968890
0.974618
0.926202
0.890198
0.822001
0.758711
0.675073
0.591293
0.515497
0.401833
0.362465
0.298464
0.215618
0.160890
0.126702
0.074702
0.048321
0.038234
0.005454
0.040548
0.036673
0.030647
0.084293
0.122701
0.142738
0.179718
0.206719
0.257365
0.316834
0.356956
0.413852
0.454196
0.472079
0.514949
0.539842
0.549052
0.595456
0.587535
0.600917
0.619685
0.580703
0.619035
0.607554
0.601182
0.588456
0.594102
0.551064
0.529646
0.534133
0.491750
0.474502
0.455512
0.439152
0.435805
0.391605
0.390212
0.402540
0.363884
0.365797
0.350616
0.342389
0.342507
0.322789
0.314493
0.293545
0.303817
0.313916
0.298491
0.303241
0.281819
0.302678
0.313304
0.294876
0.291866
0.297279
0.325617
0.293315
0.271532
0.273025
0.279352
0.271210
0.288170
0.257927
0.245969
0.245549
0.249604
0.247257
0.239371
0.231391
0.211019
0.231655
0.228445
0.229537
0.220275
0.226953
0.198508
0.189500
0.195573
0.167309
0.184537
0.168808
0.162258
0.158966
0.152190
0.141447
0.149714
0.162627
0.162679
0.144989
0.148762
0.116475
0.118035
0.123456
0.093156
0.107376
0.104278
0.089582
0.093498
0.087503
0.072500
0.085682
0.058211
0.058575
0.073813
0.062218
0.048648
0.081910
0.058302
0.058957
0.044028
0.035893
0.051698
0.032410
0.041434
0.049110
0.047847
0.036519
0.027411
0.014078
0.005242
0.021707
0.023825
0.006356
0.008504
0.014721
0.023757
0.000933
0.000365
0.004645
0.012329
-0.004897
0.014706
0.027935
0.013661
-0.001519
0.009422
0.001605
0.025753
0.018433
-0.003272
0.000121
-0.009064
0.025346
0.007167
-0.001138
0.037458
0.021956
0.003171
-0.008303
-0.023941
-0.006096
0.005924
-0.031416
0.004663
0.034178
0.019834
-0.017254
0.021830
-0.020218
-0.016319
0.009320
0.005879
-0.008618
-0.010928
-0.002242
-0.005089
-0.003684
-0.017957
0.017018
-0.011906
0.014837
-0.013745
-0.002912
0.008850
-0.014613
-0.002966
-0.000189
-0.011743
-0.007797
-0.000672
-0.006038
-0.020269
-0.022467
-0.017365
-0.012336
-0.019339
-0.003961
0.022891
0.003898
-0.000545
0.004777
-0.020220
-0.015588
0.008612
0.001467
-0.007940
-0.006235
-0.013976
-0.020393
0.000729
-0.007031
0.013138
0.003249
0.021067
0.018044
-0.013844
-0.008987
-0.019308
0.001118
-0.023483
-0.002614
-0.009422
0.029565
0.001710
-0.022155
0.013652
-0.022826
0.044395
0.015933
-0.007953
0.018781
0.000119
0.014296
0.035378
0.018026
0.043766
0.063644
0.051899
0.047213
0.083308
0.071231
0.067549
0.089582
0.112095
0.139839
0.127707
0.123854
0.134117
0.152615
0.157255
0.126930
0.152706
0.147341
0.153586
0.120270
0.155791
0.139780
0.121941
0.112339
0.089874
0.099026
0.109100
0.072132
0.103491
0.091303
0.055166
0.049813
0.045840
0.029885
0.018287
0.037339
0.030027
0.030496
0.005828
0.000982
0.004621
-0.009587
-0.014017
-0.023607
-0.048677
-0.033182
-0.062862
-0.027068
-0.065067
-0.043670
-0.039532
-0.048263
-0.025090
-0.074718
-0.012402
-0.000053
0.027082
0.043327
0.089477
0.152725
0.183443
0.247944
0.313002
0.353983
0.462164
0.513129
0.561632
0.682284
0.760291
0.793066
0.874089
0.931291
0.953819
0.984435
1.005919
0.964620
0.938846
0.963498
0.877584
0.825008
0.745569
0.684720
0.619660
0.522357
0.413607
0.350399
0.292531
0.208928
0.153845
0.106880
0.049627
0.038300
0.049346
0.006815
0.036833
0.028323
0.045825
0.078754
0.120642
0.143428
0.196305
0.231204
0.267142
0.357466
0.343947
0.404159
0.471481
0.497525
0.484621
0.558548
0.585744
0.603720
0.601265
0.603173
0.614172
0.596166
0.603326
0.601328
0.617021
0.587999
0.553968
0.544426
0.530224
0.514899
0.459017
0.481787
0.459535
0.430102
0.420943
0.393444
0.360263
0.359120
0.371790
0.343292
0.347441
0.319957
0.361575
0.305387
0.344199
0.295706
0.315126
0.303816
0.318504
0.329105
0.306741
0.272049
0.292727
0.295437
0.281728
0.321349
0.291187
0.300092
0.286724
0.257158
0.259305
0.285948
0.280097
0.277192
0.270409
0.254985
0.248910
0.252448
0.225020
0.238719
0.240890
0.227946
0.226518
0.230643
0.217393
0.220955
0.205141
0.187782
0.175937
0.180303
0.165553
0.168963
0.157335
0.136237
0.160269
0.167690
0.152178
0.108030
0.157782
0.121356
0.124372
0.098767
0.103015
0.113582
0.105311
0.114041
0.120371
0.101780
0.070712
0.094342
0.064033
0.061672
0.055995
0.079800
0.063256
0.078753
0.045543
0.064607
0.046015
0.031045
0.046084
0.015775
0.046187
0.043372
0.060500
0.034997
0.041163
0.054326
0.037667
0.003652
0.041470
0.004603
0.028641
-0.010781
0.010122
0.009926
0.031928
0.025612
0.021169
0.007308
0.007544
0.003626
-0.011769
0.000671
-0.005604
-0.004839
0.023783
0.008094
-0.002272
0.015921
0.012930
0.011749
-0.001061
-0.000099
-0.058638
-0.023881
0.005977
0.000750
0.013845
-0.023462
0.020690
-0.012962
0.000017
-0.002266
0.007523
-0.006142
-0.011084
-0.001312
-0.009234
-0.011083
-0.042987
0.020035
-0.000706
0.003276
-0.018132
-0.005040
-0.012137
0.002602
0.009064
0.005714
-0.012165
-0.006558
-0.000135
-0.023626
0.005255
0.013825
0.001818
-0.011991
0.010880
-0.011636
0.000296
0.017185
-0.017824
0.001078
-0.005419
-0.005654
-0.057032
0.006464
-0.028669
0.004521
-0.028614
-0.014753
0.025242
0.003553
0.003880
0.006286
-0.004029
-0.004439
0.023031
-0.012758
0.000120
-0.012605
0.016500
-0.017738
-0.017437
-0.009572
-0.001625
-0.003353
-0.023472
-0.007228
-0.023037
0.023838
-0.010708
-0.003721
0.000158
-0.000396
-0.004576
0.034325
0.019821
-0.002147
0.023563
0.006936
-0.000728
0.022645
0.040874
0.038436
0.021426
0.040445
0.025510
0.064271
0.070674
0.065895
0.099124
0.082659
0.113102
0.082789
0.135680
0.133013
0.124027
0.136069
0.148977
0.133062
0.140948
0.149091
0.131968
0.146112
0.131642
0.127285
0.127924
0.102850
0.123010
0.121376
0.084294
0.071670
0.095154
0.075604
0.022640
0.064352
0.056953
0.030713
0.030787
0.032816
0.001923
0.017345
0.016039
-0.019528
-0.011086
-0.013668
-0.020740
-0.010554
-0.022663
-0.018965
-0.053373
-0.018971
-0.044739
-0.032547
-0.069395
-0.073225
-0.036705
-0.016192
-0.016470
0.013302
0.036723
0.077201
0.075431
0.131637
0.188078
0.252604
0.310956
0.378823
0.458303
0.517003
0.592163
0.684173
0.752073
0.822931
0.874904
0.893291
0.966218
0.975562
0.973041
0.975047
0.966506
0.902135
0.889357
0.816980
0.753528
0.689627
0.591641
0.472735
0.452850
0.364555
0.286992
0.191897
0.173778
0.103299
0.077971
0.032293
0.016161
-0.003321
0.030058
0.053351
0.055414
0.092003
0.113930
0.154404
0.173031
0.242276
0.255541
0.306987
0.352002
0.413996
0.457547
0.481063
0.516460
0.536936
0.548726
0.569915
0.584748
0.614494
0.605521
0.591020
0.612933
0.611248
0.588553
0.586497
0.581345
0.558783
0.490049
0.528566
0.508774
0.486683
0.456369
0.455005
0.432435
0.419423
0.394264
0.368793
0.363628
0.317883
0.344421
0.327243
0.325691
0.319437
0.336807
0.337205
0.328979
0.301427
0.327375
0.322086
0.321647
0.292837
0.281473
0.303860
0.303346
0.314395
0.269071
0.278636
0.290769
0.299875
0.272069
0.283525
0.254160
0.258857
0.275481
0.240310
0.249855
0.217045
0.253059
0.240146
0.219261
0.225893
0.226266
0.217866
0.219608
0.208948
0.203660
0.210340
0.198459
0.174736
0.166621
0.163539
0.194657
0.129416
0.155054
0.180670
0.151213
0.136301
0.159380
0.113663
0.125697
0.134490
0.104885
0.102621
0.083816
0.097546
0.127319
0.071888
0.070717
0.107049
0.076167
0.080654
0.057153
0.085790
0.067191
0.072601
0.048318
0.051028
0.047295
0.023949
0.057102
0.033173
0.057892
0.025826
0.007619
0.015293
0.039048
0.052579
0.038853
0.005776
0.014368
0.014513
0.001058
0.031834
0.023353
0.003423
-0.009458
0.013465
0.008706
0.023837
0.010349
0.015001
-0.014628
0.024164
0.010758
0.001092
0.013085
0.007270
-0.008530
0.016679
0.004999
-0.011150
0.015941
-0.015935
0.000490
0.036330
0.033315
-0.015647
0.021646
0.020603
0.005186
0.019863
0.002029
0.008222
-0.010156
-0.013904
-0.016955
0.007268
0.007163
0.018718
-0.006346
-0.021183
0.008413
-0.007515
0.012610
-0.015482
-0.031897
-0.016913
-0.000979
0.009837
0.001152
0.012421
0.023384
-0.005273
0.044197
0.003079
-0.000186
0.012247
0.034206
0.019339
-0.007211
0.004766
-0.002731
-0.012449
-0.006719
-0.019045
-0.003238
0.017164
-0.002878
0.014545
-0.001399
-0.021068
0.037509
0.001325
0.003208
0.011493
-0.012106
0.003332
-0.011000
-0.008191
0.012059
-0.007197
-0.017563
-0.018443
0.001914
0.001288
0.007402
-0.018015
0.003610
0.013821
0.028265
-0.011672
0.023015
0.013809
-0.012050
0.021936
-0.017703
0.002069
0.006009
0.005306
0.011320
0.009371
0.000145
0.020551
0.007254
0.029133
0.032494
0.037248
0.072867
0.070934
0.080142
0.074016
0.108132
0.117676
0.084049
0.120979
0.102805
0.155327
0.128095
0.140230
0.141165
0.132812
0.153590
0.164294
0.142239
0.141599
0.133424
0.128092
0.119880
0.121511
0.100476
0.099391
0.104236
0.082203
0.053853
0.053161
0.052813
0.038670
0.034925
0.047565
0.019718
0.045139
-0.000232
0.029480
0.001830
-0.000708
0.002342
-0.007279
0.003375
0.005638
-0.018229
-0.036177
0.005378
-0.024863
-0.056453
-0.047906
-0.060753
-0.049784
-0.054127
-0.025656
-0.012957
-0.031346
0.035392
0.032094
0.104794
0.144088
0.189586
0.263413
0.323179
0.370180
0.463561
0.504008
0.589797
0.679538
0.730750
0.816461
0.871667
0.912424
0.960422
1.012406
0.991161
0.989399
0.949809
0.916944
0.887495
0.822581
0.745891
0.657717
0.602154
0.511897
0.410514
0.358269
0.267033
0.210782
0.181222
0.106724
0.080747
0.070314
0.035790
0.028731
0.010619
0.034218
0.069817
0.106167
0.132502
0.163643
0.186786
0.245928
0.251560
0.347270
0.380353
0.420689
0.459906
0.482366
0.506690
0.561530
0.551346
0.547127
0.599817
0.615161
0.624376
0.602404
0.603909
0.598879
0.593599
0.604034
0.564718
0.538802
0.531519
0.495896
0.476064
0.477389
0.434294
0.464683
0.399620
0.433160
0.387529
0.367431
0.368396
0.377220
0.330595
0.356826
0.349520
0.340343
0.346623
0.313283
0.322346
0.322815
0.300747
0.286582
0.315330
0.322675
0.302413
0.294164
0.319701
0.286137
0.260133
0.265664
0.264456
0.280099
0.291819
0.255695
0.270824
0.266500
0.272643
0.275885
0.279735
0.254106
0.220470
0.241054
0.225126
0.233913
0.221846
0.215853
0.223126
0.178023
0.185026
0.162868
0.195937
0.184772
0.194641
0.166933
0.152575
0.155095
0.151518
0.154304
0.170151
0.115978
0.136939
0.121558
0.095449
0.097958
0.114403
0.114741
0.104626
0.118053
0.088232
0.073365
0.087877
0.059853
0.057896
0.070500
0.054861
0.054422
0.063252
0.060365
0.059026
0.063302
0.037470
0.057385
0.028280
0.011632
0.041695
0.038105
0.007242
0.025898
0.044422
0.026895
0.029356
0.006679
0.018223
0.026552
0.011720
0.020554
0.005612
0.029521
0.030519
0.011689
0.018705
0.047002
0.002760
0.032732
0.007160
0.002866
-0.003926
-0.005497
0.015639
-0.017322
0.005307
-0.009208
-0.008850
0.019788
0.011696
0.002641
-0.004914
0.000360
0.001439
-0.002291
0.010817
0.003433
0.007158
-0.018461
0.010155
-0.000498
0.002371
-0.025550
0.005533
0.000349
0.015003
-0.013547
0.007981
0.007718
0.003588
-0.032063
0.019381
-0.017454
-0.035601
-0.016411
-0.003224
-0.015998
0.009604
0.028531
0.001195
0.002775
0.023930
0.003242
0.014264
-0.002901
0.030938
0.029166
-0.006861
0.022619
0.016734
-0.009496
0.031617
-0.001614
0.017107
0.004666
-0.012519
0.004981
-0.007943
-0.016570
0.004481
-0.003347
-0.021724
-0.011196
-0.012477
-0.017859
-0.014889
-0.039292
-0.001831
-0.030003
-0.017446
-0.004955
0.010989
0.010617
-0.022578
0.010566
0.002656
0.023608
-0.003983
0.020921
-0.008305
-0.006743
0.018157
0.003573
0.025528
-0.008308
0.030885
0.014708
-0.011746
0.014859
0.024126
0.034889
0.030944
0.019523
0.042398
0.050524
0.079274
0.063652
0.038527
0.111444
0.091486
0.079969
0.097397
0.085912
0.145981
0.138960
0.165243
0.157207
0.159005
0.131504
0.141188
0.153133
0.124327
0.158245
0.128953
0.123657
0.127008
0.096016
0.142412
0.121914
0.093708
0.082584
0.074389
0.057298
0.045284
0.041554
0.059613
0.021397
0.013895
0.034032
0.000203
0.011278
0.007526
-0.004189
-0.012950
-0.008008
-0.034470
-0.003308
0.002587
-0.043339
-0.052545
-0.055829
-0.026327
-0.027497
-0.043837
-0.021729
-0.050517
-0.032752
-0.016043
0.000529
0.024266
0.039055
0.098162
0.130040
0.191808
0.249570
0.313168
0.395166
0.489741
0.509651
0.591932
0.674966
0.749798
0.828843
0.869187
0.941939
0.928291
0.971810
0.989004
0.963743
0.952417
0.897989
0.863761
0.828479
0.736542
0.667677
0.592432
0.527129
0.432937
0.345220
0.276250
0.201018
0.168496
0.114948
0.108332
0.035620
0.043320
0.010110
0.012571
0.052200
0.062862
0.073417
0.092502
0.153159
0.189101
0.223449
0.288303
0.295001
0.358696
0.388922
0.486997
0.463268
0.530780
0.550508
0.542073
0.588137
0.596162
0.588233
0.624083
0.613056
0.625291
0.609878
0.591447
0.582450
0.549583
0.559844
0.525535
0.505266
0.483995
0.486137
0.448838
0.426340
0.407707
0.430282
0.365241
0.370078
0.372631
0.347522
0.335762
0.323896
0.340816
0.318763
0.322288
0.324809
0.299293
0.294209
0.299958
0.284053
0.311278
0.297227
0.309622
0.275986
0.285228
0.303729
0.291388
0.300257
0.281625
0.299920
0.271239
0.252399
0.267897
0.238642
0.285868
0.250344
0.255460
0.245452
0.262453
0.239846
0.199349
0.259097
0.207169
0.199376
0.218944
0.202723
0.222499
0.208330
0.183431
0.186769
0.177994
0.168129
0.202645
0.197640
0.155884
0.158369
0.145384
0.123448
0.143148
0.119209
0.148535
0.120622
0.118729
0.113366
0.114992
0.083792
0.085105
0.089489
0.079382
0.075870
0.065307
0.069937
0.057008
0.053353
0.072370
0.055211
0.059684
0.048087
0.019700
0.024101
0.022280
0.047695
0.039059
0.051305
0.040576
0.030307
0.016974
0.000836
0.012863
0.029565
0.033897
0.013553
0.037908
0.005309
-0.003089
0.010298
0.030432
0.019635
-0.007488
0.000074
0.028615
-0.017020
0.004602
-0.007179
0.016954
0.013127
-0.003882
-0.007913
-0.040893
-0.003151
-0.006152
-0.009462
-0.016880
0.008833
0.004525
0.018079
0.011636
-0.009964
-0.014862
0.018955
0.000720
0.007904
0.008572
0.002541
0.010050
-0.001169
-0.010914
0.000429
0.021805
-0.003272
0.000997
-0.006734
-0.023853
-0.001095
0.005083
-0.008160
0.013430
0.002160
0.003599
-0.015688
-0.021895
0.010623
0.021865
-0.012859
-0.002809
0.024206
0.009166
0.007678
0.013622
-0.001871
0.026664
0.003022
0.000879
-0.017381
-0.007368
0.010205
-0.011709
-0.002308
0.004190
0.010834
-0.013029
-0.016891
0.007252
0.004114
-0.005702
0.038418
-0.015772
-0.008744
0.002734
0.007851
-0.002941
-0.008976
-0.013379
-0.016740
-0.014464
-0.004905
0.002946
-0.000281
-0.018669
-0.022676
-0.035481
0.000822
0.000012
0.021016
0.019755
0.004375
0.011033
-0.009577
0.004019
0.027280
0.002061
0.024886
-0.001757
0.016599
0.035775
0.020142
0.054436
0.048307
0.038748
0.079712
0.058999
0.102205
0.062695
0.128303
0.101609
0.095654
0.149679
0.141246
0.160581
0.125556
0.139489
0.148599
0.173849
0.136247
0.115032
0.146889
0.120226
0.111795
0.121209
0.145561
0.096428
0.124186
0.069304
0.087538
0.063130
0.032125
0.062705
0.041071
0.039395
0.042868
0.025411
-0.008301
0.025721
0.005267
-0.015683
0.004194
-0.004208
-0.023968
0.003586
-0.008715
-0.028865
-0.038626
-0.043905
-0.038387
-0.045008
-0.055255
-0.060234
-0.060360
-0.055139
-0.007338
0.010747
-0.012508
0.014611
0.076761
0.088513
0.131826
0.216131
0.273082
0.305212
0.397630
0.456369
0.522115
0.597452
0.669692
0.733740
0.783980
0.904415
0.937782
0.935824
0.966116
1.005671
0.963616
0.974213
0.956654
0.878153
0.805978
0.739337
0.672791
0.592116
0.512316
0.423052
0.353955
0.280536
0.233508
0.144146
0.097078
0.065487
0.034104
0.036782
-0.002455
0.007559
0.036531
0.060103
0.061826
0.096311
0.142480
0.200911
0.226271
0.278781
0.295041
0.357102
0.388265
0.437950
0.449378
0.522655
0.546382
0.564642
0.575832
0.623300
0.613504
0.619118
0.624415
0.593391
0.633459
0.611322
0.598576
0.549019
0.529604
0.526590
0.516750
0.509100
0.464439
0.468455
0.439646
0.423693
0.411792
0.409215
0.381484
0.383239
0.360102
0.363991
0.312664
0.347655
0.314861
0.298143
0.338864
0.286048
0.311700
0.315488
0.290613
0.300336
0.311794
0.275532
0.269602
0.282184
0.278020
0.295757
0.288512
0.275660
0.268175
0.301604
0.272473
0.281624
0.266733
0.268861
0.262182
0.229149
0.246912
0.220474
0.236673
0.211620
0.242467
0.216236
0.232523
0.212305
0.194543
0.207524
0.190706
0.167671
0.171175
0.176433
0.159560
0.172948
0.171626
0.161232
0.160751
0.141882
0.134946
0.133918
0.147762
0.121107
0.115506
0.130572
0.119625
0.085854
0.126006
0.089139
0.084805
0.076743
0.082864
0.094098
0.064847
0.057852
0.049515
0.081951
0.073540
0.040482
0.030703
0.053997
0.063925
0.048579
0.063847
0.050137
0.034226
0.036188
0.022271
0.010146
0.038303
0.005825
-0.001369
0.014902
0.032875
-0.017735
0.015390
0.010826
0.030771
0.025531
0.024669
0.028257
0.029119
-0.006402
-0.001136
0.006783
0.023006
0.000249
0.006840
0.011544
0.020793
-0.021585
0.027437
-0.035095
-0.009499
0.032639
0.025976
-0.006492
0.018402
0.015127
-0.016489
0.040755
-0.011683
-0.001865
0.020444
-0.009056
-0.003423
0.014833
0.006199
0.008172
0.031047
-0.018995
-0.016916
-0.003256
-0.013277
0.000552
0.032107
-0.001404
-0.011832
0.031913
0.020118
-0.004917
-0.007399
0.025191
-0.004449
-0.003682
0.001238
0.020601
-0.008076
0.015632
0.018399
0.005349
-0.008075
0.007361
0.024565
-0.022152
0.007344
-0.000356
-0.004443
-0.011663
-0.020322
-0.003878
-0.019612
0.018168
-0.002300
-0.025108
0.008622
-0.008602
-0.023485
-0.006660
-0.007376
-0.012104
-0.001675
0.039560
-0.025897
0.004920
-0.016939
0.012891
0.005352
0.005089
-0.008484
0.015505
0.023932
0.009863
-0.010547
-0.006318
-0.022841
-0.004604
-0.011412
-0.004145
0.011021
0.024056
-0.003331
0.017201
0.028870
0.026296
0.001931
0.046630
0.027555
0.034577
0.039766
0.054836
0.075336
0.074556
0.091615
0.084076
0.091152
0.084582
0.146107
0.141762
0.116105
0.148101
0.163071
0.156348
0.153906
0.127595
0.154578
0.162193
0.134395
0.125659
0.135520
0.110008
0.109014
0.120951
0.103917
0.089148
0.073476
0.101385
0.068368
0.047054
0.050091
0.049580
0.042410
0.031770
0.040530
0.036237
0.024732
-0.004184
-0.001838
-0.015232
-0.019259
-0.008041
0.004834
-0.034103
-0.020847
-0.039937
-0.067584
-0.025622
-0.035884
-0.043971
-0.055195
-0.065910
-0.042345
-0.034347
-0.025913
0.004889
0.034388
0.107638
0.147663
0.174380
0.250186
0.307927
0.361112
0.448567
0.523666
0.601579
0.674653
0.737020
0.812829
0.871446
0.910315
0.955363
0.996693
0.986719
0.982116
0.945946
0.914648
0.864922
0.802455
0.755924
0.670037
0.570846
0.512856
0.432059
0.348232
0.254703
0.199549
0.166441
0.102553
0.073989
0.050282
0.025830
0.008682
0.030820
0.034530
0.052932
0.071213
0.079879
0.123529
0.178514
0.231793
0.253598
0.325243
0.357707
0.406313
0.449056
0.502914
0.512502
0.535311
0.543904
0.573457
0.613616
0.594668
0.619029
0.621972
0.611400
0.615444
0.575475
0.582109
0.547552
0.519871
0.530879
0.503875
0.512241
0.486396
0.460119
0.418459
0.417027
0.388519
0.377552
0.382534
0.357354
0.377460
0.347174
0.313758
0.344251
0.320512
0.320720
0.325252
0.318127
0.339925
0.316467
0.326828
0.322301
0.283838
0.292154
0.284472
0.255456
0.297401
0.287817
0.292206
0.252973
0.292037
0.297710
0.284063
0.271464
0.252254
0.252888
0.275369
0.229525
0.217037
0.216211
0.258343
0.215438
0.228499
0.209557
0.206934
0.203616
0.217751
0.207624
0.191019
0.168942
0.184212
0.194324
0.160256
0.208444
0.183162
0.157121
0.126399
0.134007
0.148828
0.140819
0.112037
0.109550
0.092001
0.115107
0.104209
0.094084
0.101899
0.102157
0.115291
0.081339
0.090412
0.075011
0.064696
0.067739
0.090415
0.050377
0.046364
0.108986
0.064710
0.050286
0.062712
0.044010
0.028364
0.048564
0.026492
0.027307
0.055529
0.020751
0.006969
0.008169
0.048340
0.013397
0.020832
0.002210
0.029136
0.027990
0.008689
0.021453
0.013984
0.040604
0.005526
0.001697
0.001292
0.015046
0.010318
0.032852
0.015206
-0.005762
-0.003339
0.011679
-0.005743
0.010904
0.015768
0.001393
0.002368
-0.007607
0.034375
-0.014677
0.027153
-0.015646
0.025365
0.012395
0.011089
-0.011383
-0.011846
0.006606
-0.002422
0.018495
0.002068
-0.038432
0.017360
0.000749
0.005454
0.004329
0.004915
0.004039
0.006255
0.019905
-0.021031
-0.007818
-0.003664
0.017089
0.013825
-0.001755
-0.014571
-0.015310
-0.001884
0.014819
-0.012488
-0.012224
-0.001367
-0.019627
0.017687
-0.024515
0.004160
0.004872
0.003619
-0.006524
-0.011425
0.006223
-0.006310
-0.015272
-0.018879
-0.003611
0.019802
-0.030680
0.001253
-0.016239
0.014769
-0.024943
-0.015240
0.007910
-0.002821
0.025809
-0.017042
0.015025
-0.017031
-0.002364
0.009277
0.007591
0.014589
-0.016554
0.030075
-0.010825
0.012651
-0.016853
0.016079
0.004702
0.035442
0.002117
0.041413
0.017162
0.006003
0.037102
0.018777
0.042320
0.048397
0.051066
0.067875
0.029003
0.053714
0.093399
0.129196
0.085363
0.090240
0.120194
0.109629
0.141023
0.163246
0.162274
0.138593
0.165118
0.127810
0.122580
0.158475
0.156547
0.138350
0.135035
0.149832
0.138293
0.171908
0.094661
0.084222
0.078450
0.075750
0.093500
0.065560
0.052668
0.016557
0.058407
0.016144
0.026530
0.015093
0.012555
0.041369
0.007283
-0.006101
-0.005287
-0.018257
-0.007586
-0.027617
-0.045921
-0.020362
-0.060388
-0.038171
-0.053492
-0.060789
-0.032305
-0.037621
-0.049074
-0.021718
-0.031955
0.006447
-0.013223
0.040316
0.104220
0.127855
0.187054
0.220539
0.308130
0.374856
0.455524
0.520144
0.598597
0.691246
0.755165
0.815210
0.856928
0.945436
0.943872
0.972304
0.983326
0.971514
0.980796
0.880916
0.871921
0.831649
0.727253
0.655389
0.610073
0.517115
0.412504
0.339613
0.269718
0.207406
0.183686
0.115847
0.059874
0.038847
0.023281
0.021528
-0.006473
-0.001291
0.066027
0.083329
0.112133
0.170108
0.184429
0.259305
0.262580
0.308681
0.359561
0.409239
0.443445
0.490928
0.505428
0.536894
0.577160
0.575389
0.601695
0.623795
0.613054
0.621130
0.610255
0.602361
0.606280
0.595547
0.568142
0.548463
0.564161
0.528032
0.508522
0.492302
0.443431
0.432054
0.417028
0.412369
0.405827
0.389456
0.361770
0.356373
0.354733
0.345470
0.341274
0.319533
0.318479
0.335447
0.301480
0.308339
0.307342
0.314311
0.331840
0.311083
0.302017
0.288725
0.306391
0.295275
0.308699
0.270193
0.275555
0.282233
0.280640
0.279132
0.293237
0.243929
0.284619
0.239867
0.236194
0.237919
0.251637
0.237323
0.228020
0.231498
0.230815
0.217297
0.204865
0.228089
0.179223
0.186151
0.197424
0.164083
0.174730
0.197412
0.185654
0.175477
0.155970
0.138735
0.162044
0.130380
0.114726
0.103747
0.114750
0.119834
0.111583
0.100773
0.109143
0.104186
0.102150
0.088916
0.104163
0.054980
0.105241
0.057012
0.065348
0.059073
0.101455
0.053957
0.069981
0.041877
0.060766
0.056015
0.046015
0.048175
0.023313
0.037549
0.010632
0.057160
0.026958
0.019825
0.017840
0.026707
0.005783
0.047700
0.034977
0.045077
-0.012247
0.022936
-0.010980
-0.012256
-0.014810
0.017255
0.012888
0.011857
0.017150
0.007862
0.009135
-0.011593
0.001050
0.001338
0.008727
-0.005028
-0.029954
-0.015017
-0.000250
-0.002692
0.006591
0.002009
0.001407
-0.010319
0.000054
-0.012136
-0.009542
-0.010602
0.000863
-0.010103
0.010633
0.001701
0.003766
-0.006268
-0.018288
0.011797
-0.009584
-0.031923
0.018904
-0.015095
0.021337
0.000484
0.003512
0.019854
-0.010883
-0.029944
0.000031
0.005307
-0.012365
0.000514
-0.034140
-0.006352
0.003908
0.013962
-0.000287
-0.021576
-0.021164
-0.010206
0.013169
0.002920
0.009355
-0.001562
0.010634
-0.003765
0.010647
0.019032
0.009147
0.003417
-0.004260
0.002502
0.019846
0.009958
-0.026874
0.011683
-0.021066
0.043775
-0.012607
-0.025048
-0.000062
0.009418
0.008869
0.003257
0.030279
-0.005310
-0.014495
0.035509
0.025098
0.005365
0.000826
0.004484
-0.002465
0.004651
0.009020
-0.006264
0.007020
0.029286
0.024745
0.035444
0.028206
0.047279
0.047582
0.018037
0.040528
0.060371
0.065310
0.043382
0.072600
0.091330
0.100262
0.129950
0.109421
0.109146
0.130140
0.087434
0.138671
0.147747
0.140402
0.149568
0.125541
0.157710
0.143096
0.142554
0.150471
0.154813
0.136835
0.125758
0.102012
0.119723
0.083438
0.071643
0.069217
0.082928
0.047826
0.060808
0.019010
0.035347
0.020221
0.032535
0.009516
0.016842
-0.016979
0.010258
-0.005970
-0.032454
-0.009739
-0.027634
-0.037568
-0.033444
-0.050750
-0.041482
-0.040035
-0.036850
-0.028259
-0.046386
-0.029738
-0.060023
-0.045327
-0.000982
0.019875
0.050964
0.120184
0.140686
0.180361
0.232419
0.268068
0.375214
0.432869
0.513108
0.580131
0.669491
0.739403
0.810996
0.854688
0.921674
0.969336
0.974910
0.991852
0.994758
0.959030
0.946542
0.874137
0.795909
0.746932
0.686837
0.566782
0.486860
0.459159
0.345779
0.272260
0.198926
0.135659
0.123379
0.059153
0.041793
0.023094
0.027929
0.013918
0.014706
0.045909
0.087303
0.110688
0.171733
0.170679
0.219750
0.265414
0.319970
0.346453
0.418842
0.434270
0.482279
0.523146
0.523580
0.574051
0.578281
0.610783
0.599882
0.610066
0.589688
0.630218
0.609657
0.604793
0.563950
0.573703
0.556663
0.535943
0.512836
0.494719
0.480967
0.463969
0.431093
0.423317
0.412447
0.388977
0.335755
0.376860
0.345624
0.365684
0.315735
0.310970
0.320326
0.324347
0.318619
0.307341
0.304642
0.293515
0.332401
0.307765
0.319508
0.274176
0.315115
0.316218
0.263448
0.282683
0.280585
0.282811
0.267970
0.278874
0.298265
0.304161
0.306433
0.282562
0.272781
0.267298
0.231655
0.245214
0.210554
0.230172
0.212184
0.213249
0.230305
0.204286
0.208409
0.223537
0.190464
0.220827
0.176478
0.188621
0.193010
0.152917
0.135927
0.149960
0.140482
0.141071
0.163918
0.112732
0.164976
0.126150
0.137293
0.114365
0.108399
0.125111
0.082087
0.093305
0.093458
0.093645
0.047234
0.084325
0.088371
0.092754
0.051540
0.050728
0.052606
0.056805
0.060470
0.026209
0.041817
0.074417
0.031056
0.033075
0.057372
0.035833
0.024942
0.048504
0.052445
0.010158
0.052298
0.050664
0.008027
0.053328
0.034620
0.009122
0.008238
0.014289
0.007123
-0.005534
0.002269
0.009573
0.001237
0.016965
-0.003139
0.009632
0.000621
0.011535
0.003033
0.009034
0.001825
-0.012881
0.006761
-0.010374
-0.014620
0.005782
-0.011767
0.005505
-0.000547
0.010619
0.013329
0.003849
-0.007118
0.003516
0.017033
-0.009461
-0.011743
-0.005161
-0.042445
0.001671
-0.011759
0.013293
-0.007738
0.017693
0.008639
-0.020560
0.002213
-0.003214
-0.020254
0.000530
-0.009344
0.019382
0.016353
-0.001668
0.022787
0.030197
-0.000364
-0.026661
-0.004862
-0.009266
-0.014600
-0.028949
-0.012717
0.011944
-0.002710
-0.032603
0.029681
-0.010268
-0.019699
0.028817
0.011489
0.008132
0.007590
0.023888
0.005049
0.025293
-0.003971
0.007301
0.023153
0.009476
0.005249
0.021413
-0.012644
-0.018438
0.031289
-0.006208
-0.015306
0.006040
0.028802
-0.011452
0.043055
-0.009831
-0.023672
-0.008511
-0.000449
-0.021815
0.014094
-0.013256
-0.004906
0.002348
0.015300
0.006608
-0.007841
0.004747
0.045167
0.035073
0.030324
0.005010
0.030074
0.049415
0.058006
0.059408
0.074228
0.098097
0.105668
0.127143
0.121975
0.115558
0.148316
0.111981
0.142509
0.150299
0.136797
0.127443
0.158323
0.152934
0.134897
0.148769
0.122251
0.114649
0.134736
0.128964
0.123902
0.089070
0.078034
0.069058
0.041840
0.066779
0.058147
0.027156
0.042693
0.023355
0.001117
-0.001257
-0.021392
0.002915
0.005328
0.018350
-0.007301
-0.026054
-0.024151
0.007497
-0.030037
-0.025428
-0.020618
-0.045535
-0.036188
-0.044906
-0.054167
-0.044638
-0.045917
-0.010889
0.006207
0.034487
0.073469
0.075011
0.127450
0.157828
0.251370
0.276913
0.350597
0.457054
0.508333
0.541610
0.650359
0.757869
0.810497
0.860676
0.909819
0.945172
0.973679
0.980730
0.966750
0.929347
0.910422
0.879327
0.828645
0.759888
0.660644
0.587386
0.503254
0.438800
0.368816
0.283350
0.217898
0.155785
0.127164
0.066155
0.038557
0.017501
0.040772
0.029461
0.042897
0.049173
0.061477
0.090881
0.126660
0.205986
0.235429
0.269690
0.320886
0.378110
0.396173
0.450172
0.496440
0.479415
0.548166
0.568044
0.586380
0.608486
0.579091
0.609758
0.620733
0.598619
0.610749
0.574105
0.554479
0.567060
0.548537
0.537542
0.505224
0.511840
0.465381
0.465426
0.411666
0.428943
0.403659
0.367720
0.373873
0.364072
0.338311
0.351832
0.331120
0.324453
0.332191
0.300483
0.326968
0.315881
0.294715
0.287578
0.335350
0.329303
0.314683
0.302573
0.328098
0.301216
0.298126
0.284569
0.249363
0.290210
0.283357
0.275318
0.257873
0.283139
0.264466
0.241616
0.279534
0.260930
0.235919
0.234404
0.250599
0.216674
0.231736
0.233422
0.216354
0.202191
0.213503
0.189957
0.176714
0.188660
0.177685
0.188285
0.156963
0.143578
0.152559
0.145706
0.126292
0.156840
0.130975
0.166949
0.125314
0.130607
0.124959
0.101405
0.095229
0.099811
0.123169
0.084509
0.064794
0.082302
0.082310
0.062918
0.099415
0.041003
0.049479
0.055872
0.053073
0.029888
0.038592
0.040594
0.056281
0.068236
0.035591
0.017197
0.043645
0.013498
0.005056
-0.006408
0.034208
0.031855
0.022647
0.030752
0.020346
-0.002409
0.017489
0.026303
0.005656
0.014315
0.019481
0.016718
0.024578
0.015624
-0.014979
0.001474
0.007927
0.026643
0.002524
-0.001482
0.009262
-0.004608
0.006375
0.011808
0.000528
0.022172
0.021850
-0.001030
0.008693
-0.017605
-0.005217
-0.021877
-0.014103
0.003981
-0.000146
0.006889
0.004635
-0.003643
0.010320
-0.001760
-0.006635
0.005734
-0.001585
-0.016813
0.005979
-0.006407
0.006635
-0.006725
0.019299
0.013382
0.013483
0.011672
-0.002755
-0.019552
-0.010841
0.005788
-0.004239
-0.010806
0.013806
0.019545
0.008789
-0.005410
0.035641
-0.002308
0.002834
-0.023672
0.019328
-0.003558
-0.000825
0.002455
0.014341
-0.025352
0.003350
0.010283
-0.009304
-0.022194
-0.004589
-0.016330
-0.012234
-0.025479
-0.004382
0.032530
0.004478
0.012019
-0.025062
0.002900
0.019688
0.003620
0.009866
0.001144
-0.012646
0.018329
-0.005946
0.006664
0.008524
0.029479
0.008312
0.018159
0.033881
0.010496
0.003010
0.000046
0.013854
0.006039
0.016866
0.028410
0.035169
0.043978
0.032638
0.051774
0.043470
0.052113
0.072521
0.080336
0.062770
0.100009
0.088498
0.122178
0.141039
0.112789
0.127287
0.143258
0.145949
0.120132
0.140869
0.160718
0.156314
0.128579
0.150402
0.142107
0.129986
0.126957
0.104141
0.099241
0.115804
0.085879
0.125478
0.051682
0.069995
0.030632
0.051583
0.036886
0.045421
0.018312
0.029452
0.021002
0.007934
0.014933
-0.007999
0.000270
0.000047
0.001905
0.019367
-0.039841
-0.044377
-0.019472
-0.053137
-0.060841
-0.054726
-0.058271
-0.060127
-0.019016
-0.003656
-0.020074
-0.009987
0.000749
0.045903
0.077390
0.119522
0.218368
0.249527
0.284323
0.392824
0.443886
0.508907
0.618426
0.672946
0.772820
0.783656
0.871700
0.900922
0.952384
0.979348
0.986382
0.992722
0.975582
0.892033
0.867845
0.822925
0.737019
0.690262
0.613358
0.509489
0.415567
0.354458
0.293828
0.196674
0.172365
0.093751
0.079913
0.034076
0.036567
-0.004323
0.015747
0.045144
0.051542
0.064616
0.104346
0.169617
0.181061
0.244172
0.268601
0.303192
0.347620
0.389622
0.442007
0.487241
0.526520
0.525898
0.544882
0.595020
0.603729
0.601269
0.620803
0.610691
0.603580
0.625181
0.614788
0.574973
0.551602
0.584549
0.551564
0.538653
0.518290
0.468613
0.424729
0.425244
0.413078
0.419079
0.419042
0.374169
0.349585
0.357051
0.348341
0.338476
0.313762
0.322940
0.332361
0.308446
0.312086
0.329682
0.291033
0.314399
0.300131
0.309281
0.312341
0.287859
0.302516
0.306963
0.277956
0.288517
0.282364
0.282327
0.295512
0.281152
0.263716
0.267051
0.255999
0.275242
0.236407
0.245062
0.242772
0.228285
0.251863
0.227243
0.251901
0.248419
0.216183
0.231726
0.191932
0.202608
0.197364
0.210793
0.211749
0.179959
0.165856
0.148495
0.141997
0.154826
0.137052
0.131225
0.130945
0.139372
0.123388
0.089117
0.122703
0.075461
0.103194
0.073148
0.079983
0.099577
0.080986
0.062106
0.109591
0.106904
0.088747
0.070299
0.074228
0.036996
0.034952
0.030216
0.048209
0.035442
0.050275
0.054120
0.033835
0.020605
0.041375
0.014884
0.047132
0.023056
0.043315
0.015804
0.026608
0.026927
0.021247
-0.000588
0.013408
0.042926
0.018888
0.005852
-0.005381
0.016737
0.002815
-0.023714
-0.006284
0.019032
0.012914
0.004975
-0.006701
-0.002131
0.011856
0.047501
-0.003667
-0.003990
-0.001399
0.018835
0.020201
0.009545
0.004690
0.017005
0.013672
-0.003032
0.048252
0.006507
0.000313
0.004271
-0.011285
0.016007
0.016561
-0.020497
-0.004241
-0.017322
-0.011403
0.016563
0.003426
-0.013226
-0.014590
-0.005774
0.001607
-0.006896
0.014652
0.011098
-0.025359
0.000435
-0.000968
0.014701
0.008992
0.013631
-0.005663
-0.008130
-0.004020
-0.020082
0.002770
-0.025130
0.000198
-0.006972
0.002165
0.015641
-0.016418
-0.013900
-0.006208
-0.005107
0.009446
-0.006817
0.032780
-0.008413
0.028689
-0.012574
0.004504
-0.002870
0.019354
0.034953
-0.012951
-0.006246
0.007476
-0.008821
0.015623
0.002424
-0.015365
0.002494
0.017160
0.004954
0.000810
-0.003706
-0.019400
0.007581
-0.008514
0.027433
0.019092
0.023864
-0.006978
-0.001392
0.024944
-0.017645
-0.016829
0.025792
0.028609
0.033369
0.034127
0.039658
0.063863
0.058521
0.053920
0.096873
0.077614
0.122455
0.107391
0.109785
0.124919
0.123093
0.106927
0.134126
0.138080
0.151544
0.144161
0.174471
0.146078
0.137201
0.147871
0.148325
0.106040
0.106058
0.115866
0.113973
0.073029
0.081009
0.075189
0.069956
0.047075
0.050273
0.040418
0.067167
0.013111
0.004349
0.025516
0.008757
0.007649
0.001332
-0.004285
-0.026930
-0.019408
-0.019854
-0.031068
-0.018059
-0.014615
-0.039326
-0.024094
-0.053994
-0.080362
-0.051602
-0.044858
-0.048511
-0.035272
-0.021212
0.027962
0.061756
0.048918
0.159192
0.191918
0.234792
0.303054
0.368301
0.444994
0.513383
0.615720
0.686622
0.734129
0.845332
0.863117
0.910110
0.964874
0.972492
0.971088
0.997262
0.973259
0.922378
0.905985
0.829165
0.740247
0.680416
0.601078
0.519850
0.427881
0.351648
0.278234
0.182882
0.161522
0.097195
0.072560
0.044333
0.054701
0.028348
0.034043
0.032171
0.046571
0.067569
0.134412
0.143900
0.215927
0.236785
0.256025
0.346622
0.379948
0.398197
0.444490
0.477685
0.502726
0.544575
0.590120
0.590649
0.608444
0.618653
0.616264
0.617901
0.595856
0.593087
0.593508
0.594653
0.580586
0.601944
0.524698
0.511899
0.481273
0.465954
0.443276
0.436339
0.455858
0.412888
0.380547
0.397965
0.374785
0.356731
0.345628
0.329195
0.330549
0.329232
0.335979
0.290533
0.313447
0.325181
0.274901
0.292637
0.280605
0.302854
0.302589
0.295237
0.296098
0.287582
0.292201
0.291386
0.289655
0.287911
0.282706
0.267422
0.285392
0.283161
0.285929
0.261026
0.251198
0.269975
0.240675
0.227202
0.235937
0.232223
0.203242
0.200816
0.198650
0.193403
0.207781
0.214924
0.179601
0.195035
0.193468
0.192992
0.143804
0.177839
0.144365
0.148743
0.133363
0.120542
0.134681
0.159809
0.134583
0.119188
0.108189
0.088805
0.084621
0.102523
0.091933
0.086123
0.047315
0.043868
0.090596
0.081992
0.062555
0.061498
0.055090
0.082709
0.062869
0.042307
0.038894
0.026911
0.057832
0.044142
0.051822
0.057146
0.046206
0.034470
0.036036
0.021828
0.018932
0.039429
0.002987
0.033829
0.023065
0.027262
0.035354
0.008488
0.008767
-0.005940
-0.026443
-0.003536
0.006063
-0.019541
0.020839
-0.008309
-0.008908
-0.000342
0.025637
0.014632
-0.001328
-0.011399
-0.006928
-0.002142
-0.000777
-0.009138
-0.015870
-0.000052
