0.012150
-0.001747
0.018878
0.010918
-0.016190
-0.007499
0.004228
-0.013657
-0.006819
-0.027390
-0.006818
0.011342
0.014293
-0.009214
-0.017198
-0.007199
0.026745
0.009078
0.014140
0.002161
0.013810
0.028941
0.000392
0.014461
0.008212
-0.002817
-0.000419
0.013971
-0.008836
-0.002299
0.020623
0.006591
0.030862
0.002403
0.003497
0.046142
-0.008612
0.025740
0.025167
0.052781
0.043436
0.063822
0.053880
0.088509
0.097946
0.110261
0.116822
0.096893
0.106324
0.129915
0.143447
0.139518
0.149479
0.149608
0.117592
0.129920
0.143907
0.137144
0.159396
0.148146
0.114256
0.114761
0.137109
0.115199
0.094189
0.091353
0.065621
0.094342
0.056167
0.062912
0.035853
0.043518
0.047869
0.020537
0.018528
0.022652
0.000852
0.019525
-0.000970
0.021473
0.015043
0.009972
0.010706
0.019882
0.016970
0.000434
0.017996
0.017115
-0.007037
0.009504
0.016357
-0.025308
-0.015443
0.004643
-0.031620
0.010358
-0.012238
-0.004574
-0.000060
0.000185
-0.003566
-0.011369
-0.028453
-0.008979
-0.013911
-0.025009
-0.003644
-0.027279
-0.084889
-0.032393
-0.054327
-0.059458
-0.021337
-0.013213
0.014150
0.052212
0.119245
0.218108
0.326518
0.422663
0.562793
0.655341
0.791334
0.901335
0.944192
0.971276
0.966883
0.902881
0.811193
0.678169
0.570848
0.468414
0.294579
0.160692
0.037572
-0.018620
-0.068083
-0.111694
-0.116760
-0.138242
-0.127570
-0.109253
-0.072782
-0.022491
0.011500
-0.008388
0.029987
0.030959
0.060756
0.065727
0.048342
0.054597
0.075870
0.114859
0.118516
0.106998
0.097843
0.097303
0.095729
0.107842
0.098475
0.132449
0.123896
0.110169
0.161419
0.133438
0.143808
0.171094
0.164605
0.152141
0.176668
0.183159
0.187361
0.218663
0.225675
0.211562
0.197028
0.228778
0.208598
0.235026
0.232293
0.227292
0.264419
0.270189
0.246299
0.274829
0.256520
0.268844
0.295988
0.228171
0.259440
0.294160
0.281324
0.282316
0.297522
0.299581
0.287808
0.287046
0.305787
0.299364
0.319449
0.281991
0.286997
0.283263
0.299502
0.295606
0.312882
0.325488
0.297781
0.292207
0.295781
0.292380
0.278797
0.264977
0.293962
0.279623
0.265798
0.247652
0.284316
0.263829
0.232262
0.248754
0.269335
0.262107
0.222181
0.201983
0.223711
0.223284
0.218131
0.234444
0.181815
0.182617
0.174661
0.149555
0.219541
0.169313
0.168322
0.162593
0.153704
0.160789
0.152808
0.110780
0.132319
0.123385
0.147701
0.119108
0.103033
0.115034
0.106943
0.072095
0.071742
0.059864
0.114937
0.080813
0.051173
0.077785
0.051437
0.080125
0.075421
0.074242
0.044762
0.054466
0.073429
0.044326
0.055412
0.039188
0.057739
0.029636
0.032581
0.013023
0.037511
0.033788
0.037134
0.012726
0.028807
0.012468
0.039585
0.006975
0.033726
0.024648
-0.002802
0.023897
0.018858
0.009443
0.003917
0.024955
0.039717
0.026076
0.019524
-0.027285
-0.001232
0.000989
0.052559
0.000691
0.019080
0.011847
0.009425
0.030148
0.024255
-0.007059
-0.001080
0.016411
0.001037
0.003454
-0.007642
0.047715
0.000666
-0.006332
0.004821
0.026118
-0.025005
0.014244
-0.020169
-0.005615
0.003636
0.004290
0.006375
0.017430
-0.009170
-0.039090
-0.003359
0.011926
0.006295
0.006161
0.024087
0.004237
-0.005182
0.007871
-0.012185
-0.023619
-0.006990
0.017021
-0.002708
-0.000399
-0.003087
-0.000419
0.011527
0.001229
-0.010330
0.010158
0.013694
-0.007558
-0.008028
0.020793
0.001121
0.002355
0.028460
-0.011577
0.014249
0.005294
0.012429
-0.024135
-0.000294
0.009121
0.002593
-0.023004
0.024984
0.011050
-0.010048
-0.013986
0.000794
-0.009464
-0.005743
0.010083
0.000511
0.015041
-0.001956
-0.020762
0.019679
0.018803
0.003920
-0.000254
0.008714
0.006376
0.013021
-0.001194
0.012141
0.004421
0.015238
0.032350
0.049161
0.040828
0.032014
0.033095
0.037111
0.066626
0.076451
0.107116
0.124111
0.102049
0.131237
0.107568
0.140099
0.112241
0.134022
0.165807
0.147420
0.145230
0.153707
0.153628
0.167314
0.142192
0.150541
0.124534
0.101221
0.119604
0.076243
0.095078
0.117060
0.088710
0.081221
0.052978
0.052859
0.056698
0.019770
0.038008
0.048553
0.021740
0.000727
-0.001062
-0.014541
0.033770
0.011021
0.009609
0.021784
0.003578
0.008321
0.013091
-0.006625
-0.025064
-0.012214
-0.016168
-0.003915
0.030013
0.005657
0.012329
0.017491
-0.014970
-0.003196
0.013388
0.003030
-0.002409
0.015851
0.003009
-0.010825
-0.019910
-0.012524
-0.006791
0.006007
-0.044549
-0.035589
-0.045257
-0.032411
-0.050756
-0.060216
-0.023097
0.020774
0.040228
0.115581
0.217998
0.319933
0.451352
0.561933
0.662540
0.797380
0.879467
0.945473
0.982301
0.947233
0.905166
0.819254
0.681665
0.574267
0.436777
0.305493
0.166624
0.069589
-0.012407
-0.071956
-0.129566
-0.150311
-0.118609
-0.103691
-0.099012
-0.060482
-0.056504
-0.019700
-0.008061
0.008919
0.050364
0.061362
0.061671
0.064208
0.081431
0.082727
0.085163
0.091782
0.109551
0.107908
0.127556
0.107044
0.129257
0.132480
0.139609
0.153475
0.142731
0.158669
0.141311
0.156037
0.157259
0.171289
0.152322
0.162983
0.205489
0.197568
0.190638
0.185145
0.237037
0.242810
0.240734
0.236993
0.232655
0.236807
0.262879
0.253729
0.242565
0.230253
0.243492
0.260060
0.304222
0.270164
0.283784
0.266237
0.295196
0.257663
0.278504
0.314079
0.303146
0.302718
0.294345
0.280038
0.263424
0.278521
0.310143
0.289656
0.295885
0.291191
0.295407
0.300208
0.293905
0.310283
0.304616
0.298577
0.270242
0.291767
0.303779
0.289573
0.283668
0.240496
0.274397
0.255412
0.272616
0.271783
0.230168
0.227643
0.245395
0.241957
0.248370
0.208208
0.231431
0.215995
0.219399
0.223868
0.190609
0.194549
0.165810
0.215670
0.183113
0.170837
0.168770
0.153772
0.177860
0.181909
0.145355
0.117981
0.147053
0.115719
0.124367
0.124739
0.106018
0.111039
0.094053
0.109231
0.087838
0.100227
0.056575
0.090271
0.079347
0.066775
0.077960
0.046458
0.062819
0.056674
0.051972
0.035044
0.079808
0.025134
-0.010929
0.043348
0.007498
0.038351
0.023971
0.034043
0.010376
0.031311
0.009047
0.018188
0.022350
0.001841
0.017400
0.023227
0.030736
0.015472
0.006142
0.036898
0.024714
0.013541
0.015818
0.027233
0.029113
0.026521
-0.018321
-0.000125
0.022165
-0.001487
0.003102
0.027477
0.002263
-0.003005
-0.000663
0.009384
-0.041269
0.003899
-0.011372
0.021588
-0.008432
0.018915
-0.029764
0.014049
0.007786
0.029502
-0.017778
0.013715
-0.003191
-0.029307
-0.009029
0.017397
-0.012107
-0.037398
0.009279
0.005198
0.028631
-0.019936
0.015910
0.015799
-0.016181
0.002209
0.000545
-0.006853
-0.024335
-0.017188
0.021141
0.002233
0.002877
0.010575
-0.000888
0.005470
0.004400
0.020204
-0.011237
0.005778
-0.027947
0.001083
0.018264
-0.009881
0.010718
-0.005966
0.013682
0.010784
-0.010341
-0.013427
-0.002747
-0.010379
0.013899
0.018929
-0.015414
0.030513
-0.003573
-0.012028
-0.001487
-0.014590
-0.007665
-0.010020
0.012671
0.006766
0.002338
0.000774
0.009527
0.016777
0.015388
-0.007612
0.014234
-0.003200
0.018984
-0.005507
0.011034
0.020177
0.020108
0.014274
0.027255
0.031169
0.017259
0.010362
0.021382
0.035733
0.048955
0.055334
0.092874
0.067383
0.106223
0.088389
0.129370
0.118673
0.124579
0.144076
0.108126
0.137026
0.161472
0.132281
0.159885
0.113419
0.133700
0.124070
0.145474
0.131232
0.114970
0.100588
0.095263
0.115230
0.088942
0.061540
0.056283
0.091010
0.040942
0.045470
0.003841
0.030841
0.026416
0.003426
0.021631
0.003197
0.012940
0.018927
0.001649
-0.014905
0.004456
0.008528
0.021209
-0.033852
-0.003211
-0.005067
-0.019819
-0.012344
0.001794
-0.027013
0.007497
-0.022481
-0.010400
-0.000489
-0.000609
0.008626
-0.010218
0.003213
0.022718
-0.007859
-0.012699
0.002123
-0.021428
0.011835
-0.027341
0.004575
-0.056638
-0.031695
-0.039917
-0.028452
-0.050505
-0.029034
-0.005494
0.005936
0.065489
0.138579
0.217601
0.345463
0.427045
0.582082
0.696909
0.804226
0.879561
0.947923
0.972813
0.942760
0.885663
0.804392
0.685363
0.554572
0.401363
0.286692
0.167241
0.054148
-0.027391
-0.096198
-0.103120
-0.129470
-0.133903
-0.115006
-0.095760
-0.061983
-0.041908
-0.019089
-0.006794
0.022421
0.042844
0.057699
0.057426
0.041483
0.094599
0.048647
0.111814
0.075176
0.086789
0.111309
0.112892
0.132492
0.108277
0.113049
0.114393
0.138949
0.129856
0.146202
0.139495
0.170519
0.135059
0.148803
0.162543
0.165816
0.214796
0.176798
0.175900
0.216320
0.220120
0.241093
0.221695
0.226555
0.212185
0.233329
0.281169
0.208503
0.243216
0.239954
0.241461
0.295244
0.274800
0.257484
0.274591
0.268388
0.271191
0.265457
0.257028
0.277736
0.287376
0.296795
0.307298
0.313620
0.289204
0.287617
0.298431
0.293036
0.291038
0.279580
0.298619
0.289520
0.305873
0.282489
0.254843
0.279729
0.282693
0.282749
0.293137
0.286981
0.273504
0.259309
0.272647
0.298461
0.277468
0.272070
0.270133
0.267289
0.240833
0.255145
0.226194
0.215464
0.238984
0.236326
0.219008
0.206952
0.202459
0.178976
0.213400
0.149839
0.187352
0.195000
0.202340
0.151482
0.143290
0.153051
0.156091
0.160715
0.133037
0.134801
0.103446
0.098972
0.129805
0.115432
0.099815
0.080070
0.109284
0.096895
0.070547
0.080267
0.073645
0.058628
0.059155
0.085447
0.040267
0.050811
0.040977
0.052638
0.023508
0.026785
0.012619
0.052789
0.042627
0.042649
0.048437
0.028566
0.032079
0.032307
-0.006764
0.014710
0.012289
0.034976
0.028955
0.022088
0.020618
-0.008139
-0.003301
0.010923
0.007792
0.008361
0.014054
0.011530
-0.002325
0.010435
0.019251
0.000514
-0.014688
0.006713
0.008829
-0.002608
-0.003356
-0.001710
-0.007555
0.020050
0.004696
-0.003736
0.009168
0.012001
-0.000793
0.012169
0.026780
-0.004138
0.011537
0.011280
-0.011795
0.009243
0.002275
-0.004876
-0.022823
-0.012048
-0.008928
-0.018480
-0.019108
0.009550
0.001439
-0.004448
0.029369
-0.004900
-0.009256
0.002075
0.036707
0.008312
0.004117
0.017822
0.003481
-0.007071
-0.010268
0.016753
-0.000250
-0.006605
-0.005076
-0.011668
-0.012126
0.017633
0.026479
0.002242
0.012975
-0.021721
-0.008153
0.005719
-0.018196
0.027721
-0.007185
0.001214
-0.004449
0.012484
0.004636
0.006905
0.017621
-0.016802
-0.000581
-0.006639
-0.006731
-0.001299
0.002334
0.021850
0.028267
0.006152
0.021144
-0.005128
-0.009917
0.005565
-0.007986
-0.017456
0.037115
0.004329
-0.006975
0.020541
0.008428
-0.007427
0.023229
-0.010477
-0.006261
0.007974
0.062768
0.047623
0.033130
0.052311
0.084079
0.077188
0.075808
0.098338
0.091612
0.105269
0.111505
0.093756
0.105342
0.104877
0.129236
0.113238
0.146017
0.161634
0.127394
0.158678
0.144068
0.141556
0.147621
0.121209
0.104542
0.139034
0.078480
0.127340
0.107161
0.077281
0.081836
0.049402
0.012283
0.040535
0.015344
0.043729
0.016357
0.014192
0.038942
0.024016
0.016996
0.013105
0.003309
0.002431
0.002044
0.008946
-0.025156
0.002524
-0.011584
-0.009185
0.023813
0.010208
0.003112
-0.015084
0.008459
0.013961
-0.008443
-0.014518
-0.016233
-0.002487
-0.002946
-0.025155
0.009508
-0.018200
-0.001906
-0.006233
-0.015769
-0.027751
-0.006454
-0.004718
-0.023361
-0.032491
-0.055851
-0.036375
-0.047756
-0.038378
-0.021652
-0.008329
0.052582
0.144603
0.223924
0.308947
0.450904
0.544034
0.689755
0.793020
0.875840
0.969910
0.956849
0.939400
0.892603
0.821701
0.703764
0.537824
0.434789
0.264416
0.161911
0.044993
-0.056125
-0.082581
-0.097809
-0.124823
-0.127650
-0.131346
-0.112540
-0.092535
-0.063676
-0.000026
-0.015969
0.032343
0.026710
0.040607
0.076830
0.076705
0.093863
0.066913
0.084918
0.106644
0.098526
0.100265
0.105285
0.107544
0.124159
0.118692
0.116466
0.121410
0.152523
0.131957
0.150159
0.173761
0.152260
0.189009
0.179373
0.221396
0.184549
0.181812
0.202373
0.205637
0.223613
0.217085
0.208776
0.203705
0.224657
0.236266
0.226992
0.245681
0.266292
0.261851
0.263018
0.252152
0.292832
0.252309
0.279787
0.291182
0.274469
0.286032
0.308995
0.284867
0.299495
0.292489
0.288807
0.308954
0.293972
0.297527
0.305104
0.304075
0.318092
0.308373
0.293678
0.311664
0.296167
0.312408
0.300691
0.281290
0.290331
0.286944
0.286156
0.291360
0.279691
0.272329
0.276507
0.262392
0.272424
0.226032
0.212334
0.224677
0.239909
0.241299
0.221066
0.209946
0.210477
0.224218
0.204621
0.194178
0.197920
0.190059
0.202482
0.167968
0.171311
0.149678
0.183132
0.144054
0.156941
0.149365
0.137419
0.136778
0.147469
0.124855
0.113978
0.120275
0.098863
0.111673
0.107973
0.070198
0.111013
0.103855
0.063815
0.075596
0.073219
0.068430
0.071445
0.046617
0.080673
0.063270
0.051911
0.033581
0.068062
0.050210
0.049604
0.029773
0.037517
0.057599
0.014278
0.006789
0.022073
0.041323
0.015262
0.029028
-0.007105
0.031452
0.014119
0.008444
0.014145
0.014677
0.023548
0.001372
0.022474
0.000107
-0.011963
0.026230
0.015776
0.004002
-0.035786
0.012115
0.002365
-0.001769
0.007056
-0.011717
-0.005627
0.000112
-0.001948
-0.014661
-0.016769
0.015120
0.014909
0.001145
0.003027
-0.002994
0.006816
-0.009791
-0.010417
-0.008361
0.000413
0.006523
0.000598
-0.001685
-0.006227
-0.016046
0.011124
0.001894
0.014917
-0.012603
-0.016190
-0.003122
-0.000108
0.011326
-0.022843
-0.015903
0.018788
-0.004881
0.013795
0.011069
0.006817
-0.025012
-0.011012
-0.002037
0.002422
-0.013906
0.038763
0.035632
-0.004648
-0.004688
0.000091
0.035152
0.019940
-0.005042
-0.000599
0.032182
0.014651
0.011929
-0.019275
0.029194
-0.007970
0.016768
-0.014326
-0.010914
-0.003894
-0.016841
0.005155
0.011416
0.006290
0.010715
0.040344
0.005748
0.011187
0.008032
0.014273
-0.004823
0.027706
0.001923
0.006733
-0.001239
0.017398
-0.001769
0.023497
-0.011513
0.023777
0.030300
0.030133
-0.009392
0.030518
-0.000387
0.037802
0.039916
0.040132
0.042649
0.064006
0.059184
0.085084
0.103128
0.104663
0.097347
0.101817
0.130231
0.110678
0.130507
0.135298
0.167906
0.125779
0.135382
0.132988
0.161600
0.175202
0.145470
0.152817
0.116607
0.118489
0.117404
0.087850
0.112668
0.082154
0.084839
0.063669
0.090004
0.039042
0.036776
0.022703
0.025474
0.032712
0.040410
0.026355
0.022571
0.016771
0.025942
-0.006101
0.023663
0.000615
0.016656
0.010286
0.011441
-0.011081
0.000672
-0.020318
-0.001572
0.001247
-0.030388
0.000103
-0.030278
0.015977
0.010866
0.010539
0.008065
0.003220
-0.001871
0.024125
0.012367
-0.025957
-0.021066
-0.036728
-0.004810
-0.024654
-0.035211
-0.018734
-0.042487
-0.078728
-0.034471
-0.082007
-0.024707
-0.027311
0.010834
0.087742
0.146281
0.209722
0.338120
0.414008
0.556733
0.690472
0.784993
0.869353
0.927908
0.956115
0.958661
0.899353
0.818147
0.702529
0.575885
0.425968
0.266625
0.175848
0.040753
-0.030368
-0.078532
-0.128994
-0.119698
-0.112293
-0.109379
-0.101571
-0.110549
-0.054665
-0.005758
-0.005036
0.029869
0.030271
0.075737
0.059373
0.050933
0.051281
0.083235
0.076908
0.076619
0.083537
0.103787
0.133968
0.124711
0.138395
0.111217
0.147405
0.149753
0.130802
0.134815
0.151125
0.190530
0.162912
0.133498
0.183712
0.154570
0.175605
0.205817
0.205847
0.201796
0.216959
0.191393
0.217108
0.220033
0.235179
0.211524
0.246140
0.268181
0.233308
0.255329
0.286419
0.243355
0.271799
0.266095
0.283288
0.272870
0.300794
0.287334
0.282205
0.280919
0.316274
0.297282
0.300658
0.287299
0.299248
0.269103
0.296543
0.319984
0.301308
0.286047
0.324947
0.287357
0.306407
0.277316
0.300213
0.258403
0.288972
0.273643
0.280648
0.275321
0.287482
0.274999
0.277747
0.302101
0.243881
0.246308
0.273876
0.243029
0.224648
0.230478
0.243749
0.192094
0.203428
0.213286
0.236559
0.179301
0.188320
0.216192
0.190002
0.182963
0.182168
0.168755
0.159610
0.174586
0.171410
0.157732
0.140320
0.144875
0.131195
0.132055
0.113619
0.121898
0.085204
0.096328
0.123680
0.088005
0.100797
0.076233
0.101699
0.105599
0.093898
0.047596
0.065190
0.100170
0.074067
0.067303
0.024774
0.059229
0.038042
0.036754
0.067477
0.048703
0.060167
0.048369
0.038325
0.032844
0.028461
0.041162
0.043818
0.033483
0.041383
0.019909
0.016050
0.011721
0.025685
-0.004282
0.001646
0.004482
0.022367
0.011823
0.000723
0.039061
0.027520
-0.001415
-0.010202
-0.005063
0.013843
0.008563
-0.002438
-0.000652
0.000855
-0.023664
-0.006551
0.013771
0.003058
0.022704
-0.015836
-0.008309
0.003134
0.038833
0.023336
0.005272
0.010307
-0.004690
0.004151
0.007942
0.026030
0.019448
-0.007348
-0.020850
-0.021047
-0.008321
-0.003090
0.035641
-0.007635
0.033102
-0.000631
-0.002574
0.014000
-0.015936
-0.005514
-0.011608
-0.019304
0.008034
0.030206
0.026831
0.009556
0.001320
-0.015818
-0.005720
0.040631
-0.015715
0.014035
0.037279
-0.000930
-0.006031
0.022877
-0.005238
0.015819
0.015227
-0.002039
0.007605
0.032355
0.019147
-0.001642
-0.008255
0.001436
-0.011272
-0.025573
0.009837
0.012937
0.014705
-0.015959
0.012296
0.001482
0.023744
-0.009068
0.012391
-0.014185
0.026004
0.005447
-0.010900
0.020354
0.025512
-0.005597
-0.030884
0.011819
-0.008665
0.040575
0.017985
0.009068
0.000118
0.025813
0.010393
0.052022
0.046312
0.060381
0.074187
0.061595
0.097790
0.074827
0.076889
0.087702
0.108207
0.113284
0.109025
0.124255
0.146877
0.137150
0.163206
0.139612
0.156571
0.150036
0.148207
0.153973
0.131950
0.140283
0.135311
0.134506
0.110684
0.092480
0.111908
0.115864
0.086813
0.073146
0.052461
0.054838
0.014990
0.028161
0.042019
0.006049
0.021599
0.008239
0.035558
0.006785
0.014179
0.043622
0.001266
0.036160
0.008696
0.017328
0.008334
0.022303
0.004743
0.001198
-0.011790
-0.006578
0.015710
0.025386
0.001072
-0.008104
-0.012894
0.025972
-0.024297
0.001267
0.007089
-0.000845
0.004874
-0.004484
0.015146
0.015136
-0.019721
-0.032455
0.002920
-0.045167
-0.029119
-0.033785
-0.071840
-0.022165
-0.039912
-0.026471
0.031765
0.062832
0.112903
0.200311
0.318857
0.439315
0.556777
0.688798
0.805016
0.865133
0.957216
0.998137
0.957184
0.903491
0.821795
0.700995
0.545277
0.425189
0.296971
0.174010
0.100029
-0.019724
-0.080748
-0.141107
-0.116614
-0.106447
-0.137534
-0.096152
-0.061906
-0.056199
-0.035944
0.012223
0.029497
0.046586
0.029314
0.079790
0.048947
0.077631
0.069226
0.078204
0.116367
0.099318
0.088196
0.105644
0.119801
0.153678
0.123227
0.106297
0.115437
0.133311
0.157518
0.141961
0.120856
0.172935
0.160528
0.162224
0.199625
0.168842
0.187131
0.200297
0.195434
0.225134
0.225295
0.220733
0.188305
0.238695
0.227094
0.234158
0.228060
0.241924
0.248776
0.287862
0.241946
0.251511
0.280137
0.265782
0.260028
0.241946
0.265156
0.249715
0.293494
0.286501
0.286373
0.285676
0.342119
0.296277
0.289431
0.307309
0.298370
0.297658
0.309483
0.322416
0.278743
0.303187
0.298027
0.288204
0.272647
0.274861
0.289140
0.284375
0.304414
0.285176
0.249794
0.248521
0.272690
0.265886
0.255306
0.238963
0.255561
0.225102
0.252186
0.236517
0.235343
0.213158
0.199460
0.229899
0.206198
0.201481
0.193222
0.166927
0.207719
0.185604
0.219477
0.152717
0.176767
0.170569
0.166695
0.144457
0.168559
0.103529
0.152005
0.133808
0.126505
0.108574
0.109397
0.103689
0.082064
0.102139
0.082375
0.070333
0.080886
0.074321
0.079677
0.044718
0.032575
0.051046
0.058294
0.039008
0.070364
0.015820
0.059294
0.035498
0.025892
0.037569
0.042077
0.032054
0.030735
0.049036
0.029743
0.038729
0.047090
0.042721
0.004748
0.002231
-0.002410
0.018545
0.033953
0.008061
0.024808
0.021793
0.001897
0.015609
0.001923
0.030996
-0.023677
0.009895
0.006300
-0.012175
-0.019489
-0.004903
0.003106
-0.014101
0.000226
-0.001386
0.022686
0.019708
-0.004895
0.014830
0.010116
-0.004614
0.007149
-0.001658
-0.000771
-0.013410
-0.009360
-0.026256
-0.023307
0.005784
0.013944
-0.004254
-0.002452
0.008028
-0.000181
-0.026441
0.001293
-0.008656
-0.000741
0.013228
-0.012743
0.014371
-0.017795
-0.017512
0.007539
-0.006437
-0.028381
-0.002832
-0.001135
-0.024511
-0.011873
0.002919
-0.009484
0.011895
-0.031383
0.012508
0.010189
-0.017087
0.000968
0.019202
-0.022879
-0.018131
-0.001930
0.006471
-0.009801
-0.004894
-0.000525
-0.021516
-0.031006
0.008950
-0.021314
-0.011951
0.004335
0.000195
-0.010536
0.005823
0.008418
0.002399
-0.008592
-0.004213
0.010949
0.021905
-0.021564
0.003406
-0.026282
0.025073
-0.003458
0.007064
0.024444
-0.001314
-0.005227
-0.019104
-0.006103
0.008827
0.045656
0.037737
0.010629
0.041143
0.014901
0.043539
0.055088
0.059000
0.064960
0.072893
0.086704
0.076855
0.125639
0.132603
0.120183
0.136163
0.153267
0.131045
0.142621
0.144516
0.144551
0.157671
0.144668
0.140269
0.146933
0.119067
0.123243
0.110222
0.125122
0.133260
0.112212
0.067128
0.054122
0.061441
0.054694
0.080089
0.054025
0.056724
0.073679
0.046093
0.019916
0.022084
-0.000516
0.023856
0.008444
-0.005649
0.004447
0.012428
0.003454
0.010709
-0.003062
-0.002747
0.048336
0.008670
0.033586
-0.004330
0.019287
-0.022645
0.014827
-0.006400
-0.001559
-0.004922
0.011049
-0.001970
-0.001058
0.009398
-0.004035
-0.001695
-0.008883
-0.016707
0.000268
-0.010922
-0.004888
-0.010572
-0.056439
-0.024753
-0.057021
-0.072760
-0.033979
0.001722
-0.013561
0.048096
0.127123
0.227644
0.318216
0.454638
0.526862
0.686682
0.795141
0.898157
0.919644
0.953553
0.981687
0.933777
0.829744
0.659588
0.568271
0.402726
0.292703
0.170850
0.050643
-0.023400
-0.099626
-0.113163
-0.137733
-0.119749
-0.087950
-0.082778
-0.075882
-0.049427
-0.029351
0.002676
0.025401
0.050831
0.081431
0.055226
0.056942
0.080583
0.102449
0.080087
0.081201
0.089732
0.133080
0.135099
0.096930
0.116533
0.122297
0.125134
0.118025
0.138500
0.153792
0.169992
0.162831
0.153187
0.174624
0.151765
0.192955
0.199915
0.213814
0.200603
0.212361
0.210979
0.207771
0.217432
0.215446
0.250319
0.265747
0.264330
0.242103
0.267087
0.287020
0.252765
0.288679
0.269252
0.270186
0.256690
0.270541
0.274071
0.275490
0.285930
0.276843
0.283229
0.289899
0.275674
0.320159
0.299852
0.308910
0.320640
0.301757
0.323365
0.292348
0.299394
0.303785
0.300941
0.291930
0.287474
0.302117
0.235362
0.282818
0.302098
0.281266
0.284215
0.293758
0.259882
0.282181
0.241573
0.252725
0.215888
0.264667
0.241472
0.228929
0.238757
0.235718
0.226458
0.224636
0.234561
0.184096
0.225563
0.161297
0.205271
0.184145
0.166078
0.158517
0.172217
0.166286
0.152504
0.181748
0.152310
0.134633
0.113733
0.096041
0.124346
0.109865
0.119998
0.103543
0.121879
0.090654
0.106897
0.068438
0.125783
0.058791
0.074974
0.059958
0.090213
0.040776
0.067243
0.058642
0.045036
0.052721
0.043272
0.062922
0.014906
0.041832
0.041328
0.032270
0.023085
0.053226
0.038782
0.026930
0.012116
0.018050
0.040904
0.029373
0.016198
0.037759
0.023182
-0.012187
0.011431
0.012127
0.017068
0.015419
0.013143
0.003533
-0.014509
0.003419
0.003844
-0.015184
0.002003
-0.025877
-0.019185
-0.008512
-0.018073
0.005682
0.004885
-0.006356
-0.007959
-0.012374
0.004561
0.009728
-0.001177
-0.000409
0.000859
-0.026481
-0.017620
0.031743
0.024535
-0.010132
0.009971
-0.003881
-0.001795
-0.020722
-0.004081
-0.017067
-0.006754
0.014781
0.013812
0.026703
0.016401
-0.008981
0.028475
-0.002407
-0.004729
-0.005488
-0.005574
0.021035
0.005803
0.009425
-0.015902
0.002754
0.012315
-0.001985
0.007846
-0.008105
-0.026437
0.001434
-0.018590
0.016853
-0.019342
0.010377
0.006865
-0.031790
0.014248
-0.002226
-0.003051
0.003770
-0.000288
0.002234
-0.006255
-0.001907
-0.000777
-0.013112
0.019610
0.012633
-0.023349
0.015639
-0.007236
-0.012182
-0.001855
-0.017734
-0.010994
0.014657
-0.006078
-0.023017
0.021489
0.024443
-0.009041
0.010396
0.012135
-0.000265
0.011883
-0.003899
0.012246
0.012783
0.020876
0.016745
-0.005906
0.025769
0.037141
0.044827
0.042264
0.052750
0.113660
0.082682
0.089762
0.110881
0.104322
0.128813
0.129825
0.121192
0.147740
0.174246
0.171593
0.136918
0.166638
0.150499
0.139998
0.143201
0.122761
0.109041
0.118064
0.105839
0.077184
0.119617
0.080933
0.089001
0.061966
0.081311
0.054761
0.031917
0.025683
0.049534
0.029205
0.026941
0.007534
0.027853
0.002631
-0.013418
0.001406
0.044394
0.010047
0.006549
-0.013086
0.012179
-0.001623
-0.003007
0.000410
0.014124
-0.007295
0.016192
0.023762
0.011055
0.022656
0.019057
-0.017337
0.003606
-0.013306
0.025615
-0.023045
0.028345
-0.027197
-0.019830
-0.006347
-0.035064
-0.000227
-0.038538
-0.017304
-0.045572
-0.039984
-0.022567
-0.046140
-0.071875
0.005486
0.009376
0.059589
0.134134
0.198763
0.331591
0.445296
0.537849
0.669037
0.813908
0.871713
0.947677
0.982885
0.962051
0.896873
0.792628
0.687777
0.561054
0.406140
0.290921
0.159813
0.063206
0.004547
-0.101694
-0.109004
-0.112420
-0.157050
-0.127179
-0.108277
-0.054271
-0.026555
-0.028468
0.006770
0.014846
0.047265
0.058403
0.077650
0.083836
0.075019
0.071233
0.055972
0.085999
0.092053
0.103112
0.120955
0.122929
0.115068
0.105491
0.136936
0.143947
0.132019
0.166704
0.156193
0.131354
0.187186
0.144378
0.176324
0.180353
0.198995
0.174978
0.176259
0.197268
0.205207
0.192087
0.205812
0.228589
0.191602
0.256635
0.284585
0.241090
0.265123
0.256638
0.272239
0.254643
0.262439
0.254511
0.287867
0.288519
0.281796
0.284184
0.304509
0.289923
0.309729
0.291987
0.340839
0.286841
0.303611
0.281922
0.317041
0.294232
0.329860
0.290991
0.306766
0.318480
0.285782
0.284045
0.278624
0.307939
0.268642
0.251405
0.277593
0.283232
0.292226
0.294502
0.246170
0.282351
0.248420
0.266143
0.262029
0.238753
0.253226
0.242528
0.228883
0.210475
0.219534
0.191956
0.211060
0.203946
0.229644
0.198083
0.186533
0.193795
0.200171
0.184103
0.182221
0.168007
0.145279
0.145059
0.136296
0.127834
0.134131
0.155469
0.121598
0.098311
0.095929
0.101698
0.101295
0.089462
0.095862
0.079585
0.100372
0.111244
0.076236
0.078607
0.070257
0.062287
0.076319
0.062641
0.033233
0.062260
0.054040
0.040537
0.059572
0.031647
0.031010
0.012574
0.023318
0.045096
0.028114
0.041483
0.039406
0.031657
0.047973
0.013289
0.003085
0.013672
-0.023017
0.007227
0.039650
0.035150
-0.010818
-0.012143
0.007449
0.024046
0.017982
-0.014313
0.012030
0.015522
0.003487
0.010406
-0.006076
0.013459
0.003869
0.021442
-0.010904
-0.011507
-0.013347
0.026189
-0.000160
-0.022519
0.004657
0.004269
-0.000741
-0.000052
-0.010029
-0.000605
-0.000398
0.006438
0.019511
-0.005384
0.017766
-0.044728
0.002951
-0.017040
-0.009881
-0.007104
0.006807
-0.001940
-0.055574
-0.006414
0.004715
-0.013218
-0.011124
-0.001522
0.013070
0.005497
0.005238
-0.014995
-0.000395
0.014862
0.016631
0.018967
0.010633
-0.008353
-0.022818
-0.008013
0.002616
0.015876
-0.002629
0.021682
-0.017500
-0.000357
-0.007077
0.001890
0.000383
-0.005428
0.028801
0.007298
0.018198
0.001328
0.012583
0.003831
-0.003864
0.014266
-0.005679
-0.003823
-0.020404
-0.001174
-0.011752
-0.025110
0.011077
-0.003733
-0.001680
-0.017851
0.004021
-0.009244
0.025731
-0.018084
-0.008181
0.004926
0.028356
0.015319
0.018237
0.026390
0.031271
0.033630
0.045058
0.036932
0.045530
0.038175
0.070302
0.061988
0.057145
0.065608
0.049441
0.101195
0.121399
0.108385
0.133031
0.117495
0.144948
0.103439
0.133964
0.154170
0.163988
0.115377
0.129197
0.128655
0.152163
0.144714
0.110014
0.091368
0.118114
0.097038
0.090977
0.071681
0.078199
0.032211
0.059533
0.072099
0.025857
0.026835
0.020718
0.051295
-0.007671
-0.012279
0.002130
0.010439
-0.020579
0.002046
-0.022403
0.013931
0.013439
0.002283
0.015787
0.006597
0.000816
0.017300
0.001145
-0.005666
-0.002383
0.011969
0.012112
0.000009
-0.005189
0.005926
0.020566
0.012921
0.002283
-0.011349
-0.012234
-0.013038
-0.017844
0.008094
0.009774
-0.000288
-0.001776
-0.032970
-0.035395
-0.045144
-0.057156
-0.048942
-0.029330
0.046114
0.041128
0.126343
0.221906
0.326460
0.421290
0.568183
0.683502
0.802241
0.907688
0.967509
0.948312
0.953597
0.874645
0.824930
0.703492
0.566755
0.440362
0.271210
0.188732
0.071426
-0.000477
-0.090263
-0.116759
-0.134678
-0.103197
-0.118046
-0.080801
-0.074330
-0.060136
-0.016721
0.013196
0.010064
0.059830
0.059826
0.064300
0.067816
0.071814
0.073378
0.060989
0.089213
0.121581
0.098157
0.081903
0.126601
0.106899
0.126591
0.119914
0.144236
0.127693
0.162624
0.144504
0.171975
0.163250
0.151734
0.171695
0.188484
0.176173
0.174838
0.204371
0.204629
0.216587
0.211803
0.220305
0.213982
0.227501
0.235515
0.232617
0.237947
0.244342
0.244198
0.248577
0.265212
0.265420
0.274346
0.263718
0.266796
0.293889
0.272089
0.271700
0.305240
0.274622
0.301480
0.268909
0.298057
0.286862
0.296110
0.313729
0.308626
0.291715
0.285238
0.281464
0.286541
0.285902
0.272612
0.296209
0.281922
0.267741
0.328006
0.290939
0.288518
0.290497
0.276402
0.271368
0.252829
0.282702
0.233369
0.296089
0.231772
0.272414
0.247915
0.232862
0.237832
0.225791
0.203550
0.226237
0.201878
0.186483
0.189471
0.159800
0.173598
0.181255
0.201001
0.181252
0.151946
0.147106
0.121386
0.151751
0.126808
0.133089
0.125036
0.138976
0.120772
0.098089
0.119088
0.101658
0.102005
0.095509
0.070723
0.058343
0.064919
0.090429
0.088180
0.049653
0.072849
0.089713
0.081758
0.041243
0.046756
0.041415
0.062969
0.038917
0.062742
0.084799
0.038171
0.018171
0.040232
0.015559
0.015973
0.013997
0.031902
0.004669
0.020808
0.061132
0.020026
0.021004
-0.002302
0.023754
0.021185
0.037943
0.021086
0.019657
0.040437
0.012529
0.016381
0.015578
0.000245
0.005126
0.018330
0.016795
0.022384
-0.013927
0.014106
0.025477
0.011271
0.000313
0.024886
0.018386
0.010979
0.004608
0.005558
0.025362
0.008986
-0.014000
-0.018245
-0.021454
0.001984
-0.020349
-0.010161
-0.011782
0.002258
0.005847
0.007062
0.011299
0.030769
0.002359
-0.000513
0.013348
0.020866
-0.002241
0.010477
-0.018798
-0.006020
0.020676
0.015106
0.009209
-0.021383
0.023915
0.006743
0.003762
-0.003717
0.008906
0.005337
0.000519
-0.008257
0.019968
0.011379
0.030443
-0.010948
-0.000357
-0.010031
-0.009274
0.035227
-0.021551
-0.023293
-0.019767
0.029708
0.007447
-0.021033
-0.000593
0.020978
0.000191
0.004512
0.009821
0.015486
-0.012263
-0.012296
0.017033
0.001452
-0.011692
-0.018089
-0.006516
-0.009453
0.003264
-0.017232
0.000454
0.006648
-0.006561
0.000644
-0.007502
-0.020095
0.029886
0.021787
0.007975
0.027434
0.024481
0.018851
0.050250
0.056534
0.063357
0.095374
0.089472
0.093355
0.106016
0.109769
0.095937
0.105158
0.126225
0.127374
0.118490
0.151546
0.168779
0.151195
0.127126
0.177913
0.131618
0.141204
0.129145
0.125378
0.117850
0.102569
0.137984
0.098226
0.078518
0.064208
0.039784
0.064979
0.043242
0.072097
0.021766
0.044926
0.039650
0.066585
0.024533
0.011413
0.008924
0.003576
0.018631
0.008531
-0.024546
0.008635
-0.009050
-0.007245
0.002384
-0.000089
0.015723
0.000873
0.013077
0.010369
-0.015426
-0.022428
0.023289
0.023132
-0.035383
-0.008890
0.024803
0.022803
0.001465
0.012382
-0.010106
-0.002900
-0.024734
-0.002244
0.003947
-0.015091
-0.018835
-0.058190
-0.093146
-0.032875
-0.034388
-0.029393
-0.005352
0.009524
0.079218
0.138088
0.197039
0.338114
0.411003
0.531109
0.669428
0.772508
0.898139
0.914341
0.959706
0.970091
0.929406
0.797114
0.707430
0.584597
0.432498
0.287530
0.168582
0.054802
-0.016474
-0.078227
-0.107482
-0.129777
-0.121649
-0.120292
-0.099410
-0.065164
-0.058834
-0.015224
0.025867
0.012442
0.054512
0.035277
0.036946
0.084375
0.065212
0.087483
0.094956
0.080655
0.125491
0.098421
0.096704
0.081565
0.091067
0.126101
0.161109
0.136171
0.177435
0.153136
0.163464
0.159575
0.174114
0.176293
0.163246
0.193127
0.189220
0.206703
0.214340
0.184033
0.215860
0.226783
0.223228
0.202443
0.238158
0.232512
0.236718
0.236796
0.254802
0.246271
0.268608
0.280759
0.259845
0.228758
0.294431
0.251355
0.300961
0.298414
0.283533
0.282262
0.271770
0.276057
0.297178
0.294136
0.306403
0.311155
0.319191
0.302789
0.309919
0.339249
0.304718
0.301765
0.281063
0.290047
0.298519
0.280988
0.255578
0.291266
0.244817
0.272542
0.286566
0.306064
0.263650
0.287028
0.232184
0.259792
0.272414
0.252553
0.229753
0.250339
0.228869
0.249906
0.221475
0.228963
0.205513
0.221516
0.204043
0.185726
0.215635
0.159123
0.148405
0.167254
0.161548
0.159393
0.135311
0.199327
0.141862
0.146695
0.152366
0.133529
0.098798
0.129918
0.107975
0.103565
0.102304
0.095603
0.097802
0.085849
0.075040
0.096033
0.096732
0.102203
0.047732
0.070089
0.040350
0.066691
0.080888
0.055949
0.066581
0.028542
0.042361
0.057227
0.030475
0.063591
0.036900
0.014894
0.020667
0.036254
0.014766
0.004240
0.035281
-0.010448
0.032589
0.012357
0.032535
0.010414
0.010523
0.003999
0.027762
-0.009321
-0.005918
0.041542
0.017974
0.006537
-0.034069
0.007816
-0.005882
0.004297
-0.013056
0.015261
0.001162
-0.016549
-0.002319
0.000832
0.021135
-0.003164
-0.009059
0.008553
0.006060
0.009477
-0.024621
-0.006931
0.001288
0.004652
0.006299
0.010743
0.005255
-0.007845
0.009133
-0.009604
-0.007482
-0.002468
-0.059997
0.014002
-0.025391
-0.003976
0.020510
0.009379
-0.003774
-0.019522
0.009476
0.000832
-0.009313
0.000008
0.025989
0.006314
-0.010909
-0.017166
-0.026174
0.002257
-0.011067
-0.045163
0.003568
-0.019750
-0.008303
-0.013688
-0.014910
0.000157
-0.014757
-0.007600
0.004138
-0.003319
-0.003126
-0.015397
0.008272
-0.017618
-0.006436
0.007374
0.034049
0.007198
-0.010007
0.005456
0.011311
0.011866
-0.014993
-0.006486
0.012054
0.000751
-0.009024
0.000815
-0.014139
-0.009274
-0.008161
-0.003553
0.011984
0.038407
0.011547
-0.013058
0.000059
-0.003990
0.020648
-0.008466
0.021104
0.038857
0.026616
0.041489
0.014035
0.023804
0.079373
0.049994
0.069678
0.066913
0.094762
0.080767
0.106429
0.105300
0.139061
0.130286
0.162882
0.133783
0.168225
0.130884
0.142009
0.166889
0.143410
0.132580
0.144005
0.136674
0.082687
0.125270
0.128077
0.076364
0.103188
0.097932
0.063308
0.066342
0.029390
0.059995
0.066419
0.043652
0.039922
0.017685
0.019561
0.018164
0.017638
0.006862
0.003853
0.013641
0.014608
-0.005012
0.006070
0.000804
0.003519
-0.025042
-0.001284
0.001652
-0.018917
0.000543
0.009039
0.035064
-0.020360
-0.016678
0.015722
0.025018
-0.005048
-0.019720
0.010395
0.007776
-0.024427
-0.010889
-0.012660
-0.014857
-0.069009
-0.019502
-0.042190
-0.068931
-0.053856
-0.049119
-0.051742
-0.019979
-0.015563
0.027490
0.087599
0.143672
0.207446
0.325248
0.441848
0.576505
0.652471
0.818198
0.877559
0.965100
0.982569
0.957766
0.892661
0.803774
0.708357
0.558101
0.417134
0.294502
0.156055
0.058377
-0.040391
-0.073415
-0.107180
-0.105472
-0.138518
-0.130365
-0.103622
-0.088388
-0.078707
-0.016493
0.018119
0.028625
0.030855
0.076116
0.060720
0.047226
0.092342
0.091827
0.087025
0.103251
0.085047
0.114603
0.124133
0.085191
0.108347
0.134914
0.135720
0.115881
0.126665
0.146836
0.152763
0.143218
0.180785
0.189356
0.174183
0.197667
0.163031
0.197414
0.198073
0.221325
0.214207
0.209483
0.213886
0.242110
0.225129
0.206682
0.231723
0.243152
0.236219
0.232416
0.242308
0.267952
0.288489
0.258692
0.278027
0.267986
0.293482
0.278697
0.297314
0.281886
0.282424
0.320503
0.293945
0.307830
0.269881
0.305054
0.277381
0.305995
0.312943
0.287254
0.297920
0.286241
0.290698
0.285708
0.275219
0.325621
0.277584
0.276144
0.252275
0.270607
0.243773
0.270987
0.268029
0.243176
0.276672
0.249445
0.210894
0.280498
0.257086
0.241466
0.259559
0.226856
0.232209
0.223164
0.190169
0.212601
0.180772
0.206533
0.199061
0.197329
0.180812
0.163859
0.200204
0.156347
0.177038
0.160476
0.133916
0.149141
0.153686
0.149228
0.139813
0.118035
0.139697
0.109313
0.099081
0.101254
0.118025
0.097485
0.059825
0.074946
0.079042
0.080123
0.050555
0.066206
0.035717
0.061180
0.053322
0.019294
0.061407
0.063215
0.060274
0.036291
0.059753
0.023304
0.020680
0.036921
0.057156
0.028433
0.036308
0.050638
0.060297
0.041819
0.019462
0.020177
0.020660
0.025178
-0.007624
0.014831
0.014752
0.014852
0.005071
-0.006053
0.035173
0.003232
0.002526
-0.004993
0.020187
0.005938
0.035607
0.036271
-0.003020
0.005706
0.014004
0.023579
0.013173
-0.005633
-0.022361
-0.009994
-0.000782
0.017506
-0.008726
0.003869
-0.024402
0.008973
0.028615
0.006478
-0.007850
0.006442
-0.011933
0.004692
0.019059
0.002633
-0.002626
0.005087
0.016492
-0.022039
0.005786
0.024818
0.028167
-0.006063
0.035937
-0.004766
0.002009
0.013149
0.011569
-0.024252
-0.001680
0.026195
-0.012494
-0.024432
0.009287
0.013785
-0.001958
-0.015530
0.000684
0.006960
-0.022663
-0.005361
0.011214
-0.014255
-0.010275
0.012708
-0.003873
0.027651
-0.014364
-0.007414
0.001244
0.000704
0.003365
0.019734
-0.012038
0.005545
-0.003770
-0.003281
0.002442
-0.016660
-0.008069
0.021648
0.004861
0.005044
0.001334
0.001313
-0.019522
0.018065
0.015556
0.023760
0.019839
0.003901
-0.004829
0.003316
0.024518
0.014704
0.011485
0.053363
0.034351
0.018437
0.047694
0.053744
0.066829
0.073609
0.052863
0.082991
0.076241
0.113856
0.122379
0.129494
0.128555
0.137654
0.123926
0.128036
0.157973
0.140739
0.153785
0.144026
0.148819
0.157224
0.125619
0.095711
0.131238
0.102268
0.082132
0.102480
0.095414
0.093206
0.054069
0.069107
0.047262
0.050706
0.077293
0.052097
-0.001051
0.025907
0.016849
0.002210
-0.004202
0.022832
-0.010687
0.003598
0.014677
0.022195
-0.021366
0.019922
-0.015104
-0.009918
0.017860
-0.001444
0.022931
-0.002711
-0.019591
-0.020638
0.002038
0.006592
-0.029524
-0.012476
0.007280
0.006956
0.002235
0.002615
0.011075
-0.010604
0.004968
-0.037768
-0.037731
-0.033522
-0.043767
-0.040718
-0.061751
-0.047036
-0.062889
-0.050056
-0.020099
0.007951
0.079454
0.135018
0.217422
0.295030
0.453415
0.531252
0.670867
0.797673
0.872259
0.929788
0.972517
0.993391
0.897269
0.804435
0.692699
0.569385
0.414863
0.281532
0.166928
0.065333
-0.021665
-0.059273
-0.121587
-0.104631
-0.128252
-0.105699
-0.086272
-0.088260
-0.052788
-0.012362
-0.018831
0.025889
0.029449
0.055583
0.066381
0.081307
0.060541
0.072414
0.069215
0.072611
0.116703
0.102390
0.107805
0.108693
0.104157
0.115801
0.134876
0.126709
0.133549
0.140790
0.155753
0.159876
0.156044
0.167125
0.174837
0.159337
0.154086
0.208317
0.204885
0.207456
0.212534
0.217952
0.192637
0.228870
0.246404
0.238626
0.236729
0.253747
0.250878
0.266260
0.283276
0.276028
0.266921
0.264495
0.277613
0.255226
0.277151
0.283917
0.276054
0.308185
0.298974
0.303771
0.301293
0.283716
0.304419
0.284750
0.325322
0.262235
0.315497
0.320095
0.294613
0.306730
0.310576
0.305774
0.281957
0.299950
0.292806
0.281003
0.278488
0.304822
0.276645
0.280218
0.262919
0.275783
0.242260
0.275430
0.248647
0.255215
0.231293
0.259836
0.220274
0.193514
0.214575
0.219207
0.206994
0.223614
0.188139
0.196630
0.179551
0.185791
0.172779
0.175029
0.143588
0.178180
0.155918
0.149297
0.130885
0.147935
0.149742
0.105014
0.130593
0.119791
0.101712
0.089754
0.109580
0.100295
0.098124
0.121433
0.080806
0.075887
0.109682
0.044352
0.051108
0.078459
0.072573
0.051817
0.077824
0.010891
0.048127
0.041161
0.041795
0.029297
0.040986
0.056783
0.036178
0.045521
0.037094
0.027690
0.031862
0.021622
0.014605
0.025185
0.001718
0.002652
0.011214
0.017403
0.015184
0.000933
0.030760
-0.005218
0.002506
0.003829
0.016633
0.009503
-0.004985
0.012492
0.011239
0.014865
0.019111
0.006873
0.034325
0.027981
0.004050
0.012046
-0.016888
-0.009603
0.005062
-0.007847
-0.004845
0.004606
-0.030431
-0.000592
0.028582
-0.009681
-0.003914
-0.004443
0.000400
0.001876
0.005587
0.014799
-0.023149
0.001972
0.012035
-0.010033
-0.010892
0.026987
-0.019976
-0.033277
-0.010487
0.018125
-0.005288
0.014378
-0.000291
0.014785
0.023610
-0.024319
0.001671
-0.003324
-0.002538
