0.024156
0.024005
0.014959
0.034535
-0.022983
0.001787
-0.002142
0.007166
-0.017967
-0.030958
0.022678
-0.031238
-0.005839
-0.007667
-0.006335
-0.002715
0.009246
-0.026266
-0.022386
-0.027181
-0.028184
-0.004995
-0.010460
-0.007463
-0.023597
-0.006457
0.017652
-0.006293
0.029970
-0.000300
0.009617
-0.008275
-0.057611
0.008974
0.009652
0.014749
-0.002375
0.009831
-0.026534
0.000176
0.010035
-0.024890
0.022265
0.000966
0.013799
0.017989
-0.004730
0.014800
0.004541
0.007755
-0.008463
0.008546
-0.018872
0.020243
-0.012826
-0.008481
0.012371
0.009633
0.023626
0.043667
0.063284
0.051485
0.072711
0.066163
0.091472
0.053816
0.091842
0.091845
0.095867
0.115251
0.114618
0.136553
0.123790
0.122191
0.135533
0.156998
0.141724
0.158053
0.183300
0.154638
0.137071
0.112656
0.099966
0.116372
0.124604
0.097539
0.069160
0.091684
0.072143
0.082297
0.054046
0.082184
0.064055
0.036189
0.023233
0.011898
0.003329
0.003593
-0.009369
0.008198
0.010396
0.009983
0.000565
-0.018564
0.030379
0.008138
0.006030
-0.018769
0.018147
-0.012965
-0.005464
-0.001574
0.014866
-0.002490
-0.018492
-0.017223
-0.007778
-0.000241
-0.006719
0.009224
-0.017947
-0.002598
0.009180
-0.003355
0.021526
0.001940
0.027544
0.022723
0.004825
-0.019169
0.001146
-0.020450
-0.008244
0.006937
0.020179
0.009462
0.005920
-0.012289
-0.004135
0.010250
0.012719
-0.005820
0.001684
0.011489
0.026976
-0.019122
-0.004768
-0.007911
-0.000458
-0.032336
-0.036823
-0.054005
-0.043162
-0.065856
-0.049416
-0.049804
-0.022520
0.006924
0.080660
0.125923
0.225151
0.316200
0.440903
0.512102
0.664317
0.751080
0.851740
0.948224
0.956135
0.953045
0.923140
0.821782
0.702531
0.548777
0.456256
0.300831
0.172207
0.063082
-0.030350
-0.083561
-0.132428
-0.109015
-0.132264
-0.093227
-0.091880
-0.065898
-0.031746
-0.011806
0.046777
0.024995
0.031393
0.052086
0.040441
0.078584
0.062324
0.097428
0.098531
0.100113
0.100614
0.100517
0.129793
0.123946
0.110045
0.144324
0.126346
0.142827
0.165744
0.163070
0.151830
0.164246
0.158503
0.180966
0.177176
0.162652
0.213439
0.174025
0.190062
0.191164
0.221725
0.201440
0.213261
0.226739
0.220646
0.240801
0.238028
0.246363
0.243398
0.256852
0.226926
0.263345
0.282040
0.271210
0.268956
0.287373
0.270511
0.296422
0.278880
0.289583
0.266736
0.304500
0.295994
0.283198
0.295232
0.316380
0.289039
0.309944
0.275974
0.299059
0.282052
0.282702
0.250190
0.283042
0.306163
0.286197
0.292991
0.292012
0.301911
0.287582
0.270014
0.273890
0.262563
0.272853
0.262104
0.262240
0.230898
0.244928
0.234151
0.222338
0.235990
0.222874
0.234068
0.241499
0.190094
0.190728
0.220106
0.167232
0.180054
0.167119
0.149923
0.185861
0.158055
0.139385
0.148069
0.150517
0.136131
0.132659
0.128372
0.129051
0.148665
0.109373
0.120957
0.099318
0.098624
0.109210
0.076302
0.099448
0.107113
0.078468
0.068298
0.061360
0.067671
0.063732
0.049316
0.054210
0.045502
0.060070
0.028861
0.061909
0.046648
0.021090
0.015908
0.034163
0.018689
0.031093
0.025028
0.003143
0.013832
0.039388
0.000183
0.024539
0.007109
0.026477
-0.006069
0.005873
-0.009486
0.036546
0.033348
0.023949
0.026128
0.011737
0.014802
0.015187
0.008213
0.026833
0.026865
-0.012212
0.043189
0.006470
0.026899
-0.014358
-0.010428
-0.003702
-0.004380
-0.004774
-0.017182
-0.027973
0.011306
0.014831
0.009661
0.025848
0.018043
-0.019818
0.001510
-0.009410
-0.003455
0.015104
0.011342
0.010551
-0.003130
0.003872
-0.005618
-0.007017
0.001021
-0.010790
0.029453
0.029010
0.007949
0.002068
0.028147
-0.011410
-0.038784
-0.021067
-0.000405
0.027003
-0.005901
-0.006561
0.009806
-0.015590
0.019949
0.019561
-0.011910
-0.026029
0.007782
0.017816
-0.013965
-0.006182
-0.025829
0.020485
0.023686
-0.005125
-0.003783
0.004314
0.015318
0.007140
0.003198
-0.001219
0.027053
0.023786
-0.010721
0.019914
0.029195
0.050154
0.057625
0.017029
0.053098
0.088751
0.079468
0.080761
0.093279
0.091277
0.103574
0.121360
0.130661
0.118857
0.137879
0.133575
0.172431
0.154408
0.149194
0.150192
0.174371
0.112697
0.142170
0.123331
0.142701
0.081300
0.111102
0.110952
0.108054
0.092487
0.073921
0.046160
0.043748
0.027353
0.036927
0.055736
0.030404
0.031710
-0.003729
0.041327
0.016140
0.027188
0.004759
0.042169
0.009302
-0.019278
-0.026323
0.025312
-0.028544
0.001376
0.005692
-0.036400
-0.002318
-0.013282
-0.018474
-0.041616
-0.004420
-0.016552
0.010484
0.007594
-0.021748
-0.003733
0.007126
-0.000462
0.005410
-0.012272
-0.001006
-0.008168
-0.005986
-0.019025
-0.012890
0.007378
0.029931
0.001066
0.015034
0.002274
0.002210
-0.017555
0.000724
0.002721
0.016932
0.006820
0.022096
0.022583
0.006492
0.019330
-0.042433
0.015519
-0.008732
-0.034980
-0.020478
-0.025878
-0.049180
-0.053833
-0.026300
-0.045518
-0.069288
-0.048304
-0.029427
0.004406
0.042113
0.138647
0.223379
0.332162
0.412686
0.540874
0.674769
0.804516
0.875948
0.935496
0.949112
0.959457
0.912045
0.834353
0.700992
0.579791
0.468954
0.292112
0.178007
0.061001
-0.028873
-0.076242
-0.115170
-0.125340
-0.139879
-0.139850
-0.113301
-0.079260
-0.031360
-0.035521
0.030046
0.005082
0.033395
0.035021
0.062243
0.086148
0.053091
0.109961
0.094117
0.092071
0.129188
0.084236
0.105996
0.105369
0.104080
0.107756
0.152646
0.146850
0.140362
0.144292
0.101843
0.140442
0.145044
0.143536
0.173533
0.179273
0.195367
0.204076
0.197644
0.236362
0.215034
0.214458
0.217929
0.219740
0.200531
0.236727
0.237685
0.226005
0.243743
0.253314
0.248025
0.237485
0.248869
0.267816
0.286697
0.266268
0.280065
0.265801
0.270099
0.295425
0.317975
0.288458
0.295666
0.286000
0.276286
0.285367
0.301154
0.281398
0.312322
0.315938
0.317461
0.323122
0.302551
0.283762
0.321596
0.286837
0.291053
0.275673
0.303229
0.316962
0.303035
0.244160
0.272310
0.291852
0.277939
0.263879
0.258496
0.243060
0.255138
0.235121
0.269889
0.218380
0.235552
0.215677
0.202452
0.212337
0.211881
0.195361
0.206137
0.199331
0.193902
0.163150
0.146923
0.168339
0.167960
0.144692
0.144321
0.134628
0.141132
0.121362
0.111728
0.113136
0.102400
0.116115
0.098705
0.115912
0.102990
0.097106
0.062049
0.093434
0.094579
0.082083
0.072044
0.057469
0.048851
0.080165
0.020578
0.065066
0.024061
0.031248
0.046330
0.060602
0.013548
0.017824
0.008677
0.022677
0.021817
0.017388
0.037904
0.018073
0.033991
0.021391
0.008499
0.016564
0.040729
0.028830
0.004028
-0.002352
0.010437
0.031171
0.016395
0.033226
0.024785
0.013680
0.003600
0.018974
0.013065
0.014736
-0.006269
0.004406
0.012779
-0.005182
0.027443
-0.000905
-0.000483
0.000782
0.007739
0.012569
0.006750
-0.019835
-0.019290
-0.000191
0.000192
-0.001021
0.019407
0.003561
-0.002722
-0.016497
0.010811
0.039170
-0.001284
-0.002800
-0.017397
-0.006737
-0.005393
0.030573
-0.015098
0.003077
-0.000752
0.011148
-0.010644
0.006766
-0.036737
-0.002971
0.010015
0.005662
-0.006184
-0.006662
-0.013225
0.014461
-0.012274
0.001804
0.000591
0.019023
0.006869
0.022663
0.023455
0.012994
0.012142
0.023554
-0.001246
0.006393
-0.013455
-0.011783
0.009278
-0.003249
0.003192
0.032561
0.028598
-0.003706
0.004404
0.053201
0.046525
0.032708
0.058360
0.027278
0.045680
0.059642
0.085653
0.079536
0.081243
0.093262
0.087513
0.115111
0.113011
0.105529
0.165866
0.152157
0.149181
0.127948
0.140725
0.150299
0.128019
0.164148
0.140371
0.147474
0.121770
0.117127
0.102908
0.114949
0.101487
0.089183
0.069962
0.076839
0.084451
0.045213
0.054002
0.021260
0.037786
0.040367
0.016364
-0.006760
0.007610
0.033787
0.006904
0.014352
0.017829
0.002394
-0.002252
0.006011
0.024663
0.009055
0.001195
0.013389
-0.032879
-0.007865
-0.016143
-0.013673
-0.016214
-0.000360
0.023771
-0.002865
-0.002188
-0.007827
0.024928
-0.008989
-0.015109
-0.000240
0.018250
-0.007569
0.029659
-0.028820
0.009264
-0.014013
-0.003204
0.013738
0.008943
0.005454
-0.017279
0.008785
-0.003656
-0.020616
0.015838
0.016797
0.006884
-0.020334
-0.032177
-0.012173
-0.030354
-0.008026
-0.036071
-0.026373
-0.042322
-0.014586
-0.032908
-0.049680
-0.058822
-0.062535
-0.019951
-0.033533
-0.017019
0.002470
0.043682
0.125793
0.237154
0.284925
0.422275
0.541862
0.672511
0.779432
0.896456
0.952562
0.982907
0.958548
0.885976
0.820638
0.684802
0.555706
0.427754
0.296009
0.185705
0.065718
-0.034825
-0.092291
-0.117374
-0.128524
-0.116765
-0.129683
-0.064004
-0.086601
-0.035869
-0.024765
-0.021152
0.015648
0.062436
0.036565
0.060301
0.075072
0.045703
0.053204
0.103775
0.102005
0.100491
0.112056
0.097771
0.132368
0.121772
0.106398
0.126898
0.130812
0.155483
0.138528
0.138144
0.143252
0.176701
0.171549
0.184037
0.200395
0.179271
0.186879
0.205735
0.162514
0.219038
0.199180
0.201987
0.205742
0.233719
0.243384
0.223491
0.251679
0.279736
0.248158
0.260455
0.270644
0.243622
0.293383
0.253429
0.265788
0.279199
0.287531
0.283943
0.282646
0.280528
0.288120
0.290876
0.301511
0.308122
0.301694
0.284636
0.294520
0.292004
0.312620
0.289191
0.304423
0.319254
0.258490
0.298135
0.306533
0.299742
0.272173
0.266258
0.289747
0.294767
0.272359
0.278205
0.270784
0.265017
0.270592
0.255342
0.242044
0.234706
0.245225
0.261973
0.229149
0.216789
0.215022
0.215633
0.222454
0.196622
0.169893
0.212888
0.189741
0.198219
0.187269
0.161546
0.185957
0.155311
0.136693
0.152668
0.137122
0.120965
0.119786
0.103506
0.122412
0.106015
0.108275
0.100884
0.079802
0.108931
0.097166
0.050965
0.078325
0.079319
0.096957
0.084539
0.068444
0.063862
0.048955
0.057658
0.035348
0.043216
0.043070
0.087880
0.030129
0.063806
0.027835
0.024243
0.040352
0.054187
0.013378
-0.003372
0.006096
0.013499
0.021685
0.009953
0.031597
0.000701
0.019467
0.000169
0.028637
-0.001025
0.018833
-0.013548
0.020608
0.023441
-0.011166
0.009512
0.030417
0.018980
0.020624
-0.029955
0.014250
0.019259
-0.011295
-0.004515
0.001045
0.007261
0.013158
-0.011006
-0.003540
0.005147
0.006938
-0.001325
-0.001279
0.011310
-0.016813
-0.003861
-0.009851
-0.004336
0.014119
-0.017820
-0.007906
0.016159
-0.018024
-0.028338
-0.001968
0.002383
-0.001707
0.027116
-0.000047
-0.017086
0.009524
-0.009941
0.006523
0.022775
-0.008468
-0.017990
-0.002002
-0.013981
0.000490
0.018656
-0.015001
0.005003
0.006477
0.017554
0.013001
-0.024000
0.008016
-0.029617
-0.000817
-0.002813
-0.003377
-0.021221
-0.005753
-0.022815
0.011462
-0.016972
0.003683
0.011582
0.030482
0.007211
0.013157
0.011568
0.000141
0.057484
0.009490
0.043879
0.020251
0.049333
0.072374
0.081443
0.091687
0.091334
0.097899
0.116709
0.115158
0.090133
0.125099
0.134085
0.133000
0.147942
0.136771
0.150403
0.134197
0.151093
0.118817
0.145072
0.117177
0.101852
0.130049
0.104633
0.103767
0.086763
0.094410
0.066746
0.057416
0.079489
0.046736
0.050323
0.050021
0.033775
0.026209
0.034040
0.018269
0.018507
-0.009393
-0.000367
-0.000452
0.004951
-0.022932
0.007887
-0.009776
0.009554
0.001708
0.011294
-0.021703
-0.000756
-0.012938
-0.003734
-0.003251
0.021974
-0.024441
0.010029
0.014471
0.027507
0.011802
-0.026076
0.004526
-0.011575
0.000340
0.012581
-0.014639
-0.028368
-0.011017
0.031658
-0.019075
0.017908
0.001385
-0.012851
-0.028957
-0.007735
0.005617
-0.011122
0.025229
0.003381
0.017077
0.002135
-0.006512
-0.029096
-0.017339
0.015186
-0.006776
0.008827
0.032327
-0.028574
-0.007175
-0.055177
-0.035528
-0.025477
-0.020152
-0.064152
-0.033207
-0.009014
-0.005631
0.065972
0.134079
0.215825
0.284089
0.448426
0.534397
0.681141
0.821193
0.877931
0.969037
0.956181
0.946997
0.921042
0.812363
0.705970
0.570624
0.468881
0.291129
0.159174
0.084049
-0.007932
-0.106156
-0.116421
-0.149437
-0.145611
-0.152688
-0.102753
-0.086148
-0.038894
-0.043001
0.015726
0.030023
0.034914
0.061754
0.074152
0.059603
0.062683
0.109761
0.102163
0.094942
0.095552
0.108809
0.111316
0.127346
0.129849
0.112070
0.132161
0.112499
0.128990
0.158979
0.151052
0.149447
0.165764
0.170830
0.176287
0.160095
0.209459
0.197751
0.180905
0.207195
0.196848
0.227426
0.203203
0.209303
0.227413
0.248621
0.254177
0.211931
0.249837
0.253980
0.266728
0.252909
0.266191
0.257184
0.301541
0.285952
0.250639
0.313924
0.271507
0.252388
0.273194
0.283343
0.302400
0.304192
0.301983
0.294677
0.293690
0.306297
0.296998
0.297866
0.299726
0.276242
0.307297
0.282157
0.301201
0.315733
0.293833
0.288464
0.277401
0.261389
0.287665
0.288569
0.274648
0.278838
0.254076
0.252372
0.267038
0.273312
0.245560
0.239113
0.225146
0.219980
0.240183
0.180394
0.194874
0.194742
0.180838
0.198689
0.180996
0.193980
0.174676
0.188104
0.140814
0.184012
0.118183
0.128292
0.187880
0.135255
0.143189
0.127342
0.121766
0.100600
0.102839
0.103109
0.117264
0.112775
0.080029
0.106554
0.067298
0.103511
0.081792
0.083300
0.060173
0.047718
0.073807
0.079860
0.049106
0.036283
0.027307
0.023603
0.042275
0.036547
0.034873
0.012313
0.053294
0.042475
0.017570
0.029577
0.025714
0.018218
0.007331
0.019318
0.027609
0.011002
0.012419
0.019066
0.027367
0.031152
-0.001374
0.002133
0.012304
0.013562
0.022236
0.015594
-0.007167
-0.016980
0.012428
0.029970
-0.012500
0.024185
0.000689
-0.028830
0.025409
-0.007207
0.019532
-0.016562
-0.021721
0.001417
0.002752
0.014852
0.024523
-0.021568
-0.014661
0.003226
-0.007417
-0.014015
-0.018808
0.000966
0.013342
-0.003109
-0.014062
0.007451
0.006596
-0.012092
0.014063
0.026732
-0.015221
-0.009438
-0.004891
0.039565
0.000754
-0.001796
0.004032
-0.006140
0.017292
-0.013631
-0.002662
0.016220
0.001032
-0.009931
-0.008552
-0.001203
-0.020843
0.021075
0.027399
-0.005374
0.006105
0.002058
-0.001899
0.001179
-0.007239
0.005067
-0.002368
0.025639
0.025312
-0.006738
0.021807
0.000335
0.020513
-0.006333
0.030968
0.024709
0.023371
0.039493
0.031128
0.037623
0.061466
0.067684
0.059510
0.095261
0.075902
0.121551
0.085120
0.098536
0.128414
0.132900
0.154663
0.142254
0.131036
0.129211
0.125692
0.149740
0.132997
0.145027
0.159417
0.152771
0.132403
0.140641
0.104695
0.101857
0.085223
0.104284
0.075190
0.086027
0.082017
0.043356
0.046675
0.025820
0.026525
0.034333
-0.009047
0.022781
0.019826
0.021575
-0.006261
0.026368
-0.002230
0.008729
0.002149
-0.028120
-0.017851
-0.002770
0.008311
0.030279
0.006999
-0.005425
0.001502
-0.003952
0.006383
-0.023160
0.013950
0.002931
0.013563
0.018129
-0.024627
0.009531
0.029235
0.001354
0.021888
-0.028747
0.002800
-0.003498
0.000650
-0.006668
-0.015054
0.010518
-0.010002
-0.009423
-0.028807
-0.003557
0.007464
-0.007864
-0.025852
0.012948
-0.009409
-0.001655
0.019881
-0.005718
0.019019
-0.002233
-0.008592
-0.031419
-0.022389
-0.021864
-0.044482
-0.019791
-0.059589
-0.023245
-0.054561
-0.026600
-0.026157
0.003867
0.065184
0.115015
0.215324
0.322287
0.399783
0.542224
0.674676
0.771180
0.876644
0.956086
0.971555
0.967495
0.879187
0.802506
0.700000
0.579878
0.456178
0.305452
0.188299
0.042862
-0.017978
-0.054995
-0.128598
-0.130077
-0.181900
-0.105872
-0.097074
-0.083849
-0.067840
-0.037685
0.008543
0.014371
0.060153
0.028186
0.060922
0.074249
0.093028
0.088892
0.080746
0.087012
0.112547
0.128489
0.095478
0.118039
0.087597
0.121676
0.122030
0.140915
0.149045
0.114932
0.140382
0.174161
0.129567
0.173246
0.176537
0.177372
0.215307
0.219521
0.209605
0.190638
0.200831
0.219872
0.235129
0.224029
0.241045
0.252785
0.258871
0.259248
0.225214
0.285472
0.247676
0.274226
0.294504
0.271389
0.292094
0.282508
0.279675
0.278481
0.276224
0.290519
0.323681
0.316880
0.293286
0.282050
0.321101
0.270843
0.288590
0.334357
0.292443
0.288519
0.311727
0.324699
0.294783
0.304053
0.304829
0.287001
0.277843
0.294914
0.263468
0.304583
0.258056
0.269783
0.262103
0.276902
0.248357
0.251272
0.229550
0.259924
0.263641
0.234330
0.232629
0.223182
0.227654
0.202286
0.196333
0.200711
0.213716
0.195362
0.183156
0.165399
0.158607
0.182688
0.203209
0.187745
0.160173
0.167469
0.147545
0.106124
0.136418
0.100352
0.101347
0.124029
0.108554
0.110430
0.080579
0.127354
0.103412
0.068785
0.081115
0.093544
0.089062
0.079253
0.090045
0.088329
0.061893
0.039417
0.047902
0.052461
0.056704
0.054185
0.045137
0.041758
0.052896
0.071150
0.015989
0.039750
0.026010
0.035356
0.027055
0.001201
0.023412
0.066224
0.008522
-0.009200
0.008902
0.012652
0.000539
0.008730
0.028784
0.013883
0.024883
0.020864
0.007716
0.016293
0.006542
0.027778
0.012165
0.013735
0.030642
-0.001882
0.013225
0.013777
0.006647
0.012203
0.006575
0.001457
-0.003034
-0.002750
-0.028065
-0.021765
-0.020654
-0.012783
0.017001
0.007113
-0.015831
0.009868
-0.019272
-0.014944
0.010178
0.037959
0.024803
-0.005320
0.008466
0.025013
0.000636
-0.011627
0.024925
-0.012335
0.003757
0.003320
-0.001111
0.010096
0.018961
-0.022998
0.009667
-0.008099
0.002080
0.007430
0.005368
-0.010789
-0.019577
0.008180
0.008117
-0.010057
-0.002480
-0.009166
-0.009753
-0.034420
-0.000513
0.008426
0.002407
-0.002699
-0.002949
-0.013447
0.011336
0.014433
0.029124
0.010457
-0.005322
0.022905
0.002589
0.002415
0.042990
0.025053
0.047789
0.043007
0.077998
0.071863
0.081698
0.077048
0.097923
0.094686
0.103875
0.117153
0.137431
0.133055
0.151879
0.153920
0.158150
0.148539
0.161650
0.142918
0.141950
0.161555
0.147212
0.131669
0.107421
0.122539
0.120836
0.082361
0.051424
0.076789
0.071527
0.056043
0.062365
0.039572
0.042574
0.060761
0.031323
0.018157
0.031086
0.003123
0.034338
0.033913
-0.006323
-0.004927
-0.013588
0.013253
0.013885
-0.011391
-0.002184
-0.004683
-0.000533
0.000860
0.030445
0.021438
-0.001788
0.010331
-0.002948
0.010037
0.006793
-0.007835
0.013300
0.001935
-0.017404
0.001922
-0.014083
-0.012057
-0.013170
0.004578
0.007058
-0.013254
0.022592
0.012863
-0.006971
0.018538
-0.019201
-0.010283
0.000554
0.001248
-0.011091
0.011605
0.008900
0.001577
-0.031168
-0.009533
0.017394
-0.014768
-0.019599
-0.019928
0.022165
-0.015285
0.003753
-0.000924
-0.027606
-0.017040
-0.053141
-0.027477
-0.051337
-0.040457
-0.038734
0.013542
0.079805
0.106221
0.211003
0.295086
0.411697
0.520714
0.704479
0.791172
0.891458
0.917706
0.941675
0.975164
0.911029
0.832040
0.710099
0.576980
0.434688
0.285742
0.159158
0.090955
-0.020493
-0.102571
-0.125026
-0.131359
-0.122264
-0.130242
-0.102206
-0.090494
-0.045820
-0.017341
0.008442
0.017065
0.037519
0.046715
0.060977
0.042101
0.061208
0.098622
0.061829
0.097702
0.048801
0.105958
0.128901
0.117927
0.111625
0.129116
0.126716
0.110576
0.130994
0.148523
0.154882
0.144829
0.166777
0.175288
0.194477
0.193851
0.182126
0.207714
0.196598
0.204107
0.203059
0.225822
0.225200
0.223252
0.230062
0.208590
0.249848
0.235820
0.263433
0.256691
0.255675
0.297293
0.282267
0.261522
0.251530
0.252974
0.288929
0.296935
0.275010
0.283071
0.317692
0.273054
0.290975
0.290266
0.295117
0.327732
0.310958
0.323579
0.303480
0.304065
0.310906
0.321874
0.269265
0.292185
0.284524
0.296545
0.295535
0.285880
0.272315
0.289578
0.289590
0.260696
0.252561
0.257046
0.285857
0.269379
0.239369
0.227554
0.251077
0.230193
0.224611
0.215441
0.233314
0.198040
0.211651
0.201986
0.201369
0.190264
0.216446
0.198290
0.173126
0.179716
0.170408
0.181221
0.166172
0.141429
0.139710
0.132095
0.131447
0.129521
0.114657
0.107892
0.107355
0.111079
0.114117
0.110115
0.086963
0.070070
0.078384
0.048300
0.069226
0.079031
0.074525
0.074631
0.070495
0.059708
0.080386
0.039183
0.045252
0.048514
0.053627
0.034617
0.042470
0.061074
0.040571
0.028266
0.020121
0.033207
0.018925
0.009957
-0.008879
0.027987
0.030065
0.002683
0.050049
0.015157
0.032432
-0.007022
0.016810
0.040676
-0.000400
0.026972
0.004862
0.009063
0.005131
0.020779
-0.004059
0.016182
0.007079
0.006208
0.012920
-0.018221
0.012810
-0.003421
-0.018076
0.025716
-0.006351
0.006290
0.009626
-0.032119
0.022252
-0.005091
-0.027157
0.006349
0.007785
-0.004817
0.023519
-0.025932
-0.020339
0.015012
-0.008226
-0.020648
-0.004456
-0.002868
0.002318
0.014399
-0.008510
-0.012039
0.004377
0.019665
-0.023049
-0.007775
-0.000558
-0.014705
0.004164
-0.009144
0.001733
0.043452
-0.000987
0.000559
-0.005849
0.003928
0.029278
-0.002796
0.013362
0.019323
0.024258
0.014758
-0.022515
0.004895
0.019943
0.018733
0.017582
0.024560
-0.001887
-0.017083
-0.008058
0.027293
0.009731
0.014951
0.029259
0.042164
0.018043
-0.007422
0.055888
0.040046
0.053654
0.060264
0.083169
0.089334
0.068973
0.104990
0.104346
0.097743
0.122385
0.120511
0.149842
0.151066
0.143881
0.147077
0.157841
0.158354
0.118296
0.170815
0.143983
0.143749
0.144714
0.142520
0.135819
0.101372
0.082902
0.061547
0.063353
0.062490
0.063845
0.048477
0.060792
0.034731
0.007860
0.012399
0.035033
0.000833
0.033514
0.030893
-0.001299
0.003274
0.018297
-0.001937
0.011571
0.000889
0.006776
-0.032574
0.023353
0.003463
-0.020701
0.000438
0.011519
0.006335
0.020207
0.015213
0.012495
0.014748
0.004858
0.001367
-0.006577
0.007376
-0.010497
-0.011407
0.012539
0.008137
-0.031144
0.041356
0.037450
-0.023118
-0.023872
-0.014077
-0.011374
-0.009482
-0.016539
0.002473
-0.019960
-0.016782
-0.018406
0.017550
-0.009829
-0.013137
0.001443
-0.006395
0.016415
-0.006795
-0.010090
0.011730
-0.006541
-0.005178
-0.026530
-0.039956
-0.041761
-0.026022
-0.061015
-0.031392
-0.027404
-0.003370
0.064849
0.110338
0.193970
0.291996
0.423027
0.537745
0.685448
0.799346
0.860873
0.922199
0.960634
0.964969
0.898590
0.847895
0.716785
0.602385
0.430160
0.294691
0.174427
0.061611
-0.031834
-0.064646
-0.128950
-0.158873
-0.134137
-0.122383
-0.071883
-0.054500
-0.060337
-0.038360
0.001427
0.034358
0.002134
0.056789
0.054202
0.041331
0.057747
0.079988
0.072584
0.085956
0.084745
0.124226
0.129676
0.112871
0.125429
0.120282
0.130639
0.133207
0.139537
0.142221
0.138789
0.153801
0.170005
0.193584
0.161849
0.179678
0.198503
0.201389
0.181446
0.243873
0.208286
0.226316
0.206311
0.210393
0.232232
0.242814
0.217739
0.252098
0.229438
0.254639
0.247417
0.266128
0.258471
0.265362
0.215041
0.273301
0.276258
0.304997
0.284264
0.275718
0.280952
0.277315
0.289529
0.293847
0.277262
0.278075
0.313834
0.293939
0.311131
0.291008
0.317840
0.306231
0.307847
0.295931
0.315314
0.265914
0.297007
0.260138
0.265705
0.250095
0.299385
0.276279
0.285527
0.281173
0.265806
0.256142
0.252977
0.249645
0.260804
0.258381
0.234159
0.241324
0.231501
0.192330
0.212917
0.212543
0.186527
0.200766
0.180786
0.198860
0.169635
0.161836
0.188349
0.166269
0.185610
0.149514
0.148053
0.140983
0.106760
0.121129
0.128999
0.099064
0.117514
0.092586
0.107990
0.090366
0.081626
0.101983
0.076380
0.082019
0.105179
0.081680
0.089328
0.067063
0.043630
0.050429
0.019569
0.038609
0.037282
0.030828
0.054308
0.031532
0.031406
0.046284
0.021957
0.058550
0.016656
0.016677
0.008409
0.023547
0.022652
0.006733
0.020037
0.037250
0.013204
0.013013
0.003034
0.017977
0.011257
0.019134
0.013889
0.023644
0.014274
0.014420
0.005862
0.014388
-0.007342
-0.001652
0.007181
-0.010846
0.015594
0.003308
-0.009207
0.012395
0.002789
-0.010175
0.015621
-0.010058
-0.001071
-0.024047
-0.004153
0.009824
-0.005752
0.017208
-0.026714
-0.011096
0.016224
-0.004371
0.012821
0.008333
0.014436
0.002362
-0.000065
0.008385
0.011627
0.018439
-0.006322
0.011310
0.025192
0.002097
0.015518
0.024237
-0.011654
-0.000527
-0.005498
0.017675
0.028869
-0.012193
0.019296
-0.007982
0.005849
0.013829
-0.010388
0.009318
-0.010255
0.008720
0.003446
0.008149
-0.005032
0.017255
-0.011081
-0.016818
-0.043335
-0.002373
0.013974
0.012117
-0.015610
-0.011261
-0.002237
0.018365
0.009054
0.021877
0.040808
0.028427
0.053875
0.042019
0.050566
0.065303
0.040988
0.081714
0.064721
0.111388
0.129544
0.121075
0.145435
0.124275
0.133920
0.133244
0.162728
0.112306
0.154674
0.168382
0.114341
0.143385
0.174608
0.134313
0.123795
0.140010
0.098845
0.122788
0.082060
0.091201
0.059331
0.038336
0.064422
0.046863
0.046453
0.031844
0.024217
0.013331
0.006404
0.039605
0.000842
0.015537
0.020531
0.013063
0.013613
-0.023609
0.015321
-0.009741
-0.044985
-0.012307
0.001723
-0.008444
-0.006126
0.012947
-0.026852
0.008560
0.010065
0.014849
0.002082
0.012191
0.016885
0.010255
0.019721
-0.006652
-0.008129
0.010497
-0.017345
-0.004669
0.004906
-0.004208
-0.005385
0.011129
0.005483
-0.024010
-0.006627
-0.000115
0.015972
0.017536
0.017074
0.046444
0.015123
-0.006943
0.001450
-0.017372
0.007226
-0.015002
-0.018433
0.018375
-0.009062
-0.002802
-0.002330
-0.015335
-0.024671
-0.030547
-0.053783
-0.043462
-0.027091
-0.041414
-0.003226
0.035220
0.077895
0.122410
0.198507
0.294103
0.422037
0.551828
0.638984
0.770989
0.864090
0.944145
0.975853
0.959096
0.947038
0.841228
0.737757
0.579087
0.440283
0.303715
0.160286
0.066489
-0.034137
-0.075814
-0.106263
-0.138405
-0.132256
-0.133608
-0.106772
-0.101600
-0.073898
-0.030714
0.012073
0.036693
0.029116
0.071076
0.043245
0.099477
0.089873
0.067060
0.084839
0.101048
0.101771
0.121588
0.095393
0.099246
0.135260
0.128179
0.132447
0.141549
0.135680
0.119193
0.166507
0.158342
0.162056
0.133039
0.164546
0.187299
0.186850
0.184195
0.166924
0.200322
0.200862
0.219266
0.224348
0.206475
0.208595
0.225072
0.238886
0.262691
0.261966
0.237618
0.229269
0.281564
0.288009
0.272482
0.271673
0.303875
0.263570
0.319382
0.274534
0.305339
0.283698
0.293252
0.316364
0.298923
0.276647
0.320212
0.299626
0.321935
0.307963
0.299880
0.341334
0.294267
0.296970
0.306786
0.267885
0.282003
0.292230
0.268411
0.289144
0.299164
0.284450
0.279668
0.275639
0.269890
0.254426
0.251566
0.272073
0.224868
0.256347
0.234943
0.262088
0.212550
0.242192
0.226098
0.187509
0.197805
0.202136
0.189763
0.191123
0.217963
0.185304
0.155017
0.147225
0.189668
0.167108
0.139991
0.166473
0.108165
0.142606
0.124831
0.140953
0.103097
0.103168
0.118130
0.103807
0.075645
0.104227
0.096803
0.091775
0.073193
0.070521
0.089689
0.084704
0.045101
0.087563
0.093829
0.046138
0.031384
0.067054
0.074103
0.029318
0.037925
0.050364
0.029809
0.018291
0.022292
0.051178
0.028539
0.010608
0.014369
0.008077
0.000659
0.027926
0.039887
0.042460
0.008059
0.023694
0.047327
0.006044
-0.002384
-0.004837
0.009693
0.015809
0.009340
-0.018274
0.013156
-0.001802
-0.000290
-0.008772
-0.006573
0.007359
0.008142
0.023376
-0.008788
-0.000912
-0.005462
0.006125
-0.026035
0.010085
-0.021788
-0.004381
0.001972
0.005518
0.006544
-0.010553
-0.003998
0.035530
-0.001396
-0.023316
0.020366
0.002844
0.040075
-0.006935
0.005415
-0.000438
-0.008375
0.027493
0.000237
0.003236
0.010018
0.007196
-0.029648
-0.027640
-0.010714
0.023081
0.007805
-0.008171
0.014835
0.020716
-0.017359
0.013896
0.016952
-0.026185
0.014466
0.013322
-0.000553
0.006048
-0.003759
0.019750
-0.025305
-0.010290
0.004432
-0.009409
0.008710
0.002553
0.010894
0.017995
0.011802
0.024034
0.016302
0.022042
0.037016
0.034660
0.035403
0.051100
0.046600
0.055130
0.059831
0.098259
0.062645
0.109509
0.079261
0.122326
0.126998
0.112954
0.103611
0.116921
0.129193
0.130027
0.155063
0.148351
0.146716
0.136230
0.122378
0.148390
0.138420
0.115500
0.115087
0.106248
0.100074
0.097173
0.071230
0.079680
0.043065
0.068024
0.059307
0.030401
0.047735
0.048438
0.042730
0.034304
0.028997
0.017643
0.013951
0.001959
0.005764
0.023016
-0.003114
-0.008569
-0.001122
0.025323
0.022948
0.018043
0.006167
0.004530
-0.006643
0.010661
0.016985
0.005045
-0.002862
0.005477
0.009163
-0.007523
0.000516
0.006447
0.000881
0.014046
0.004906
0.006900
0.000049
-0.017014
-0.009602
0.024751
0.017462
-0.027203
-0.010658
0.001317
0.026669
0.003842
-0.011685
0.001955
-0.000510
-0.003808
0.001350
0.008026
0.016202
-0.015705
-0.011563
-0.011748
-0.010878
-0.041237
-0.013635
-0.013346
0.012696
-0.006456
-0.017340
-0.049644
-0.049419
-0.034584
-0.055432
-0.032805
0.024773
0.069339
0.142516
0.230827
0.327917
0.412917
0.562141
0.664188
0.796454
0.876890
0.921060
0.955611
0.966095
0.875273
0.823810
0.698538
0.558402
0.453152
0.293531
0.153392
0.057676
-0.036267
-0.061726
-0.107463
-0.146911
-0.106425
-0.130930
-0.111770
-0.110991
-0.049241
-0.017361
0.002085
0.031410
0.034906
0.034739
0.056050
0.070830
0.069353
0.060974
0.075099
0.081040
0.074895
0.108825
0.094522
0.122642
0.118411
0.142227
0.119312
0.158716
0.130863
0.146336
0.182538
0.150652
0.173654
0.157408
0.193571
0.170504
0.175873
0.185550
0.198624
0.190699
0.203489
0.222887
0.226001
0.234625
0.229887
0.223978
0.241729
0.244602
0.241742
0.233090
0.277153
0.247749
0.259888
0.244667
0.281282
0.283517
0.258372
0.268564
0.301584
0.278582
0.292929
0.286649
0.303860
0.317780
0.300309
0.326758
0.319117
0.316976
0.280973
0.303442
0.321254
0.305489
0.294568
0.287463
0.289506
0.295202
0.286651
0.301782
0.264347
0.265917
0.290021
0.273943
0.249452
0.286710
0.274798
0.281484
0.265952
0.265087
0.216933
0.235582
0.247055
0.217514
0.232341
0.228542
0.234356
0.191799
0.186817
0.180702
0.202429
0.153709
0.187596
0.169527
0.177874
0.156885
0.163380
0.150731
0.161126
0.145425
0.146698
0.111170
0.134370
0.106657
0.112022
0.130751
0.124268
0.076371
0.098520
0.082665
0.107579
0.084178
0.081282
0.059933
0.059959
0.070140
0.076318
0.096190
0.002590
0.057480
0.059298
0.034393
0.057844
0.045754
0.056094
0.003395
0.053017
0.030347
0.038941
0.015683
0.038050
0.014674
0.028213
-0.000893
0.029345
0.013576
0.034227
0.024163
0.023860
-0.008855
0.013978
0.027247
0.015814
0.021236
0.016972
0.023041
0.005097
0.016891
0.005700
-0.007147
-0.001857
0.014512
0.015425
-0.008704
0.028230
0.032379
-0.014198
-0.001857
-0.012782
0.016735
0.008648
0.022997
-0.022103
0.022061
-0.011756
-0.003673
0.021979
-0.015695
-0.012123
-0.017105
-0.006788
0.003724
-0.002697
-0.011539
-0.022045
0.017764
0.005978
-0.001735
0.006330
-0.013969
-0.002344
-0.015413
0.007000
0.009311
0.017608
0.026928
-0.011526
-0.011671
0.010281
-0.005954
-0.021533
0.016049
0.009486
0.003791
0.044676
-0.021964
0.002639
0.039374
0.006976
0.000891
-0.007089
-0.019780
0.001244
0.008803
-0.008469
0.011904
0.009881
-0.001734
0.022386
0.027843
0.019913
0.015946
0.005955
0.020054
0.013386
0.041596
0.040378
0.057976
0.077321
0.062424
0.077340
0.073178
0.081893
0.111983
0.111340
0.131114
0.127640
0.149052
0.139469
0.126148
0.139412
0.146276
0.170408
0.144706
0.141142
0.153495
0.140303
0.124123
0.120814
0.118219
0.106317
0.092395
0.075516
0.101000
0.094049
0.058389
0.040824
0.077420
0.054124
0.025350
0.016786
0.030910
0.016668
0.009461
0.045301
-0.004822
0.008189
-0.010272
0.004388
0.009485
0.014545
0.008640
0.031020
-0.005314
-0.003143
-0.011238
0.010780
-0.004512
0.002290
0.012125
0.008278
-0.000758
-0.003927
0.000403
0.021948
0.009914
0.016083
0.000864
-0.000013
-0.005999
-0.004651
0.016423
-0.001571
-0.012917
-0.002408
0.005982
-0.002566
-0.000173
0.004699
0.019865
0.005579
-0.010129
-0.028161
0.000612
0.004707
-0.008421
0.003975
-0.011819
0.001045
0.016785
0.009847
0.004256
-0.004470
-0.003121
-0.016395
-0.012813
-0.036499
-0.043006
-0.005427
-0.047969
-0.054372
-0.041009
-0.024408
0.001579
0.084783
0.109984
0.193112
0.289668
0.419336
0.560361
0.678526
0.775127
0.853673
0.943165
0.951277
0.941606
0.927569
0.791050
0.712677
0.566228
0.457407
0.295335
0.168472
0.067231
-0.007923
-0.070577
-0.127285
-0.106515
-0.154584
-0.114138
-0.131839
-0.068293
-0.031033
-0.017714
0.009891
0.034365
0.039798
0.062559
0.045979
0.084969
0.077908
0.100535
0.069385
0.093107
0.106977
0.102565
0.104732
0.098100
0.110166
0.127169
0.131568
0.135519
0.136553
0.163735
0.125248
0.122614
0.170450
0.153287
0.176188
0.150347
0.193557
0.188855
0.195255
0.196532
0.204152
0.218053
0.215702
0.210512
0.243332
0.236441
0.247657
0.254561
0.238577
0.272157
0.277167
0.238435
0.249628
0.249632
0.255327
0.281697
0.257123
0.263689
0.286323
0.289217
0.275281
0.293874
0.294525
0.281285
0.311330
0.305411
0.274888
0.282059
0.333016
0.277509
0.305970
0.280285
0.261949
0.308073
0.283692
0.315106
0.298720
0.281058
0.292623
0.260778
0.275912
0.283596
0.263995
0.236234
0.259930
0.266940
0.288638
0.251244
0.262255
0.254333
0.245927
0.231685
0.227217
0.251060
0.224876
0.190171
0.212499
0.161369
0.189805
0.179617
0.186317
0.148277
0.170996
0.140164
0.159387
0.160042
0.164243
0.098183
0.151423
0.151218
0.109909
0.140920
0.106943
0.100117
0.073439
0.111211
0.083229
0.084369
0.092499
0.073432
0.075897
0.085358
0.068442
0.078221
0.064413
0.069906
0.054451
0.049258
0.052234
0.064931
0.043341
0.047125
0.038942
0.024305
0.035457
0.030859
0.040667
0.047980
0.047607
0.027113
0.031430
0.009158
0.019050
0.022804
-0.014774
0.009782
0.035385
-0.003612
-0.014124
0.002924
0.009044
0.027715
0.006343
0.024336
0.003305
0.022930
-0.002453
-0.009938
-0.008020
0.023115
-0.000246
0.000251
-0.007660
-0.001689
0.023900
-0.004997
0.025285
-0.007397
-0.002145
-0.002031
-0.006425
0.022821
0.021561
-0.019313
-0.002446
-0.001344
0.000518
0.007049
0.026534
-0.009204
0.007081
0.008367
-0.019447
-0.012695
0.005122
0.013341
-0.005714
0.013129
-0.010418
-0.011911
0.000241
-0.009398
-0.002485
0.013581
-0.001264
0.012846
-0.013930
0.009507
0.021919
0.003836
0.001607
-0.007928
-0.019655
0.014786
0.002817
0.001887
-0.012078
-0.008239
0.008765
-0.002392
0.004476
-0.010573
-0.025277
0.010864
-0.010631
0.013479
0.002863
0.010531
0.016793
0.015263
0.036671
0.035799
0.035634
0.058240
0.033424
0.013070
0.019690
0.052298
0.049004
0.092090
0.115237
0.100633
0.109792
0.103143
0.110925
0.151875
0.135080
0.129350
0.160406
0.164776
0.136377
0.141432
0.156477
0.152895
0.114233
0.113591
0.136554
0.119712
0.081693
0.117088
0.088641
0.063475
0.047559
0.076120
0.065399
0.056234
0.067414
0.049719
0.009457
-0.000941
0.012869
0.005555
0.028130
0.024595
0.010632
-0.007353
0.013330
-0.003499
-0.019044
0.020854
-0.012291
0.004932
0.021203
-0.017519
-0.008551
0.013599
-0.018507
-0.029246
0.029983
0.045920
-0.021081
0.005662
0.003867
0.000893
-0.019259
0.000263
-0.022758
0.008831
-0.000962
-0.014542
-0.006076
-0.002084
0.010257
0.009487
-0.003332
-0.012924
-0.019098
-0.000218
0.008064
0.013070
-0.019190
0.008317
-0.004576
-0.010865
-0.010974
0.003084
-0.008002
0.004805
-0.014872
-0.003330
-0.012579
-0.018911
-0.011494
-0.014913
-0.051770
-0.025997
-0.041148
-0.054753
-0.068454
-0.041001
-0.020997
-0.021219
0.059142
0.117717
0.240623
0.313283
0.425198
0.566387
0.682396
0.807082
0.888733
0.944881
0.974016
0.962350
0.904337
0.813019
0.703192
0.577279
0.459346
0.276125
0.173199
0.071214
0.006164
-0.040161
-0.132140
-0.102655
-0.130566
-0.109199
-0.125480
-0.037045
-0.029744
-0.026550
-0.000724
0.019234
0.032093
0.062620
0.078144
0.050563
0.054207
0.084652
0.085501
0.072354
0.079017
0.108773
0.107868
0.111840
0.108861
0.107153
0.127952
0.145664
0.141782
0.152783
0.141295
0.192512
0.172260
0.173519
0.181289
0.181900
0.180845
0.193203
0.179978
0.216136
0.188592
0.207634
0.208636
0.202543
0.232550
0.221918
0.230075
0.266714
0.243336
0.248563
0.266250
0.261695
0.242835
0.277036
0.269594
0.296411
0.289577
0.306585
0.287921
0.284620
0.314825
0.300869
0.309291
0.319198
0.282964
0.324999
0.292607
0.302477
0.306108
0.284409
0.334819
0.306805
0.321239
0.315413
0.300333
0.298873
0.274552
0.311358
0.284827
0.286313
0.269810
0.268995
0.296596
0.251921
0.250076
0.264699
0.246226
0.243285
0.254215
0.252658
0.191585
0.209056
0.232101
0.216029
0.215048
0.216289
0.219840
0.177870
0.189800
0.158427
0.204954
0.176305
0.167554
0.176046
0.170519
0.164664
0.175450
0.129452
0.148301
0.133814
0.124581
0.130283
0.102984
0.093511
0.095071
0.079065
0.056222
0.077011
0.087240
0.091673
0.081023
0.064175
0.063655
0.055191
0.075481
0.077283
0.030544
0.084947
0.048642
0.047315
0.027687
0.049058
0.055847
0.033020
0.031565
0.041676
0.028848
0.023348
0.029632
0.016005
0.028099
0.038373
0.030973
0.008077
0.046465
0.025305
0.026493
0.021144
0.025085
0.000858
0.007759
0.010796
0.005270
-0.003317
0.002828
-0.016954
0.001338
0.014811
-0.025925
-0.003926
-0.009365
-0.007994
-0.010330
-0.021061
0.031902
0.011163
0.014886
0.020376
-0.010003
0.015093
-0.015831
0.003483
-0.009275
-0.002446
0.028856
0.002572
-0.017264
0.002784
-0.014415
0.023886
0.030905
-0.015857
-0.007717
0.004671
-0.017521
0.024750
-0.002450
0.013848
-0.005859
-0.011367
0.006524
-0.012732
0.002240
-0.017907
0.010834
0.005616
0.002914
-0.013489
0.022703
0.011297
0.005321
-0.025346
-0.000958
0.014112
-0.003376
0.025082
-0.006329
0.001732
-0.011357
0.016627
0.007293
-0.011059
0.002829
0.052857
0.006549
-0.000474
0.002561
0.025664
0.011161
0.006259
0.049079
0.022608
0.025837
0.021523
0.040924
0.059003
0.046975
0.053861
0.069744
0.065198
0.074769
0.099084
0.122939
0.117152
0.120504
0.125045
0.151959
0.177832
0.140895
0.130484
0.154089
0.174104
0.164480
0.141257
0.162863
0.137520
0.117351
0.123953
0.107370
0.103077
0.103591
0.091699
0.054458
0.089402
0.040905
0.047240
0.030414
0.057061
0.027401
0.049691
0.013211
0.035003
0.027084
-0.007542
0.027253
0.031766
0.015734
-0.011314
-0.020366
0.015090
-0.010272
0.004550
0.010022
-0.025600
-0.007706
0.008375
0.025788
0.020626
-0.022543
0.010586
0.014656
-0.009810
0.002501
-0.008116
0.012770
0.015965
0.001868
-0.032302
0.006669
-0.013274
-0.022407
-0.018424
-0.013074
-0.024546
0.010299
-0.012579
-0.010709
0.009686
0.024618
0.015489
0.011737
-0.032825
-0.008236
-0.018344
-0.004987
-0.015803
-0.009854
-0.030112
-0.001424
-0.012235
-0.004668
0.004428
-0.028464
-0.025648
-0.002626
-0.061315
-0.061914
-0.036825
-0.035047
-0.056254
-0.034337
0.018612
0.063798
0.120480
0.198227
0.306391
0.445176
0.563228
0.668512
0.733844
0.872041
0.926803
0.978547
0.966628
0.905963
0.800073
0.737691
0.567052
0.446171
0.277979
0.199649
0.067448
-0.022053
-0.101417
-0.117832
-0.136436
-0.112964
-0.133493
-0.109460
-0.083363
-0.037961
-0.036355
-0.020478
-0.004576
0.057781
0.030471
0.047686
0.072808
0.078160
0.056793
0.073120
0.064134
0.122100
0.103407
0.120219
0.108057
0.097448
0.144209
0.130359
0.144317
0.191173
0.146311
0.144675
0.158818
0.165012
0.148834
0.162648
0.181038
0.222810
0.175112
0.208781
0.208997
0.214794
0.217145
0.225839
0.222451
0.202786
0.215354
0.251126
0.263946
0.240619
0.286824
0.235950
0.261722
0.283702
0.264730
0.272730
0.299970
0.266086
0.268193
0.293871
0.299474
0.314649
0.313051
0.270333
0.313087
0.307384
0.309173
0.321493
0.294726
0.274974
0.306898
0.258967
0.334996
0.322533
0.319876
0.293637
0.285725
0.301647
0.292073
0.298606
0.277221
0.276518
0.267642
0.240300
0.285130
0.261571
0.257223
0.254893
0.263296
0.282491
0.237736
0.236725
0.239833
0.208663
0.214974
0.219282
0.199925
0.211872
0.186044
0.169379
0.163237
0.185311
0.155283
0.166669
0.130228
0.155596
0.140954
0.122017
0.128697
0.141863
0.151353
0.100758
0.115544
0.101164
0.119132
0.094462
0.091410
0.112416
0.076722
0.046511
0.052871
0.094516
0.047698
0.082145
0.073277
0.049574
0.059784
0.045984
0.068329
0.066640
0.011830
0.048487
0.016979
0.048505
0.036416
0.026136
0.018619
0.037849
0.038597
0.027079
0.037044
0.010004
0.020852
0.006712
0.018629
0.019476
0.017043
0.018995
0.031617
0.026428
0.024629
0.011943
0.000088
0.009184
0.030153
0.011317
-0.015270
