0.002552
-0.015727
-0.004625
-0.025983
0.012427
0.007838
0.014199
-0.004170
-0.016365
0.023218
0.008771
0.033670
0.048696
0.026384
0.033286
0.035247
0.054029
0.066017
0.036887
0.047720
0.074322
0.096779
0.087062
0.100523
0.128637
0.125186
0.124715
0.114973
0.150218
0.159944
0.150526
0.148403
0.143588
0.106913
0.150472
0.136047
0.145553
0.126793
0.134293
0.117007
0.124714
0.131214
0.067714
0.089196
0.066553
0.030301
0.033221
0.018694
0.044821
0.025200
0.012347
0.012088
-0.019625
0.017439
-0.003012
0.015897
-0.018055
-0.016089
-0.030113
-0.030954
-0.036544
-0.044233
-0.045213
-0.051434
-0.043620
-0.053334
-0.054164
-0.040475
-0.037486
-0.081661
-0.025394
-0.014773
-0.023824
-0.008908
0.010680
0.051467
0.061799
0.086821
0.140933
0.158770
0.191211
0.250823
0.279159
0.346491
0.396639
0.439372
0.525128
0.550398
0.609838
0.697822
0.734565
0.798324
0.838209
0.871557
0.914939
0.969051
0.964353
1.003738
1.018339
1.004188
0.990449
0.995664
0.958646
0.941761
0.904176
0.870791
0.797973
0.745171
0.699967
0.628382
0.583960
0.524699
0.482144
0.400366
0.338898
0.300517
0.263112
0.216115
0.198457
0.175619
0.138350
0.133505
0.132575
0.138306
0.141064
0.136315
0.186870
0.235587
0.228070
0.253214
0.283279
0.323813
0.347806
0.422851
0.438527
0.500418
0.563633
0.602082
0.604504
0.665180
0.724040
0.769769
0.781780
0.835998
0.853030
0.865855
0.878061
0.930046
0.921212
0.917561
0.968331
0.929793
0.937294
0.923847
0.916715
0.922883
0.892621
0.871612
0.844118
0.806316
0.778301
0.783302
0.698006
0.704097
0.672547
0.654764
0.607362
0.548387
0.524026
0.528980
0.521163
0.447204
0.437549
0.420648
0.385157
0.371731
0.366822
0.346671
0.325651
0.284576
0.288661
0.276722
0.266410
0.253933
0.264169
0.196240
0.218315
0.185488
0.213030
0.209286
0.174441
0.168151
0.187373
0.175940
0.144747
0.155078
0.157383
0.160660
0.129809
0.137253
0.138359
0.145768
0.115607
0.112602
0.083065
0.099218
0.074110
0.089389
0.090279
0.071904
0.078988
0.048389
0.077976
0.048761
0.078056
0.070675
0.046881
0.050734
0.051054
0.056428
0.055310
0.053307
0.059801
0.020910
0.036694
0.012402
0.017457
0.009208
0.031111
0.039050
0.043282
0.003310
0.022149
0.013234
0.009494
0.022315
0.014816
-0.014320
0.011864
0.009524
0.014575
-0.024529
0.013395
0.015673
-0.011123
0.003761
-0.020099
0.004216
-0.010567
-0.006435
-0.009116
-0.005223
0.003247
0.029051
0.001661
0.011824
0.025274
-0.008506
0.003733
-0.002050
-0.009103
0.002650
-0.001950
-0.005179
-0.007439
0.003314
0.002489
-0.010729
-0.017200
-0.002823
0.026383
0.017143
0.005946
-0.007930
0.014440
0.011789
0.006681
-0.006423
0.003582
-0.018428
-0.022820
0.013978
0.012490
0.015016
-0.018593
0.004748
-0.019829
0.025336
0.022968
-0.030311
0.013134
-0.004915
-0.032063
-0.006122
-0.010168
-0.007189
0.012966
0.004654
-0.012857
0.005492
-0.017164
0.000353
0.008333
-0.006663
0.009373
0.000123
-0.047290
0.026084
-0.029518
0.013198
0.020459
-0.002492
0.005892
-0.007605
0.016023
0.007985
-0.019888
0.002529
-0.003124
-0.019631
-0.004015
0.015548
-0.004256
0.028746
0.007692
0.000467
0.017754
-0.000271
0.015922
0.016600
0.004074
0.025969
0.012141
0.006757
0.010131
-0.005115
0.023507
0.058853
0.068799
0.084550
0.063564
0.088810
0.108097
0.086122
0.144426
0.106005
0.103860
0.159994
0.131502
0.128342
0.148720
0.135722
0.158697
0.123968
0.168188
0.138793
0.144057
0.125170
0.136183
0.102884
0.111809
0.091461
0.084118
0.056725
0.062771
0.043791
0.036867
0.070458
0.051771
0.038510
0.029013
0.029791
0.005296
0.010291
0.006869
-0.029584
-0.010403
-0.030009
-0.031937
-0.011900
-0.020506
-0.026591
-0.046159
-0.024564
-0.080125
-0.024027
-0.048365
-0.043875
-0.042867
-0.054695
-0.010830
-0.007828
-0.017812
-0.018576
0.009511
0.033783
0.053279
0.104301
0.107337
0.153644
0.164648
0.244048
0.314631
0.345020
0.388557
0.439946
0.509009
0.576157
0.636331
0.676106
0.735891
0.789013
0.841106
0.857523
0.927683
0.959413
0.998555
1.012663
1.011033
1.033272
1.010494
0.992428
0.971804
0.931839
0.898828
0.846221
0.812628
0.754033
0.703408
0.616674
0.590381
0.526235
0.507750
0.420004
0.378459
0.320441
0.268618
0.246977
0.202445
0.164186
0.153064
0.138563
0.141381
0.137063
0.141622
0.149362
0.159755
0.180099
0.244112
0.267803
0.286682
0.341782
0.374049
0.404858
0.453670
0.484020
0.542657
0.576878
0.636903
0.685416
0.691340
0.729285
0.792223
0.828184
0.828707
0.857438
0.896248
0.935497
0.923733
0.924525
0.925174
0.931962
0.927173
0.947094
0.905070
0.925259
0.892627
0.851314
0.829518
0.797971
0.774993
0.797127
0.710112
0.691739
0.668294
0.638768
0.601545
0.597579
0.548493
0.504656
0.471081
0.474236
0.461973
0.445654
0.412039
0.364651
0.347861
0.347117
0.323807
0.305895
0.322667
0.266118
0.290760
0.220422
0.224093
0.230375
0.227593
0.211009
0.203860
0.185485
0.173395
0.186943
0.156913
0.162190
0.157890
0.160355
0.146328
0.147420
0.135967
0.131992
0.145030
0.089754
0.131373
0.125933
0.131538
0.113122
0.087657
0.079208
0.076241
0.069835
0.082259
0.091838
0.061943
0.079828
0.046580
0.044174
0.046789
0.079072
0.071167
0.030077
0.054483
0.051479
0.038630
0.057557
0.061999
0.037069
0.070139
0.028042
0.036649
0.031633
0.033559
0.041448
0.003955
0.015579
0.016743
0.003727
0.015104
0.005110
0.013524
0.002223
0.012237
-0.012120
-0.004122
-0.003623
0.020030
0.018559
-0.019181
0.013045
-0.006247
0.012679
0.003886
-0.027792
0.014553
0.008937
-0.022893
-0.002701
-0.016316
-0.009956
0.013055
0.000723
0.008622
0.023815
-0.000354
0.004996
-0.010175
0.007083
0.004787
0.004320
0.016689
-0.012592
0.002891
0.029791
-0.034737
0.003362
-0.010242
-0.002026
-0.010825
0.016703
-0.001669
0.005661
0.018672
0.009107
-0.014808
-0.020219
-0.040408
0.003355
-0.016430
0.010542
0.031367
-0.022948
0.014337
-0.014533
-0.006447
-0.018203
0.019099
0.001180
0.032763
0.003508
0.012512
-0.011776
-0.013241
0.009838
-0.001540
0.000759
0.005935
-0.012323
-0.002222
-0.002590
0.001948
-0.004256
0.007139
-0.009317
-0.005329
-0.024823
-0.019763
0.028796
-0.028983
-0.002012
0.007557
0.029173
-0.016907
-0.017031
0.026303
0.000337
-0.018175
0.003526
0.025255
0.023842
-0.015238
-0.007066
0.006711
0.020206
0.008952
0.025503
0.029209
0.010442
0.048090
0.018867
0.064623
0.067717
0.069716
0.085108
0.109011
0.085123
0.117658
0.131636
0.164117
0.127858
0.151284
0.129180
0.150452
0.157415
0.154368
0.141582
0.140427
0.154486
0.153195
0.135123
0.147228
0.121124
0.122033
0.078714
0.057681
0.070612
0.067543
0.070766
0.054665
0.072606
-0.009609
0.009608
0.033281
0.013430
0.019656
-0.016521
-0.001234
0.014835
-0.037770
-0.007264
-0.039286
-0.047588
-0.013810
-0.029851
-0.030639
-0.041072
-0.039585
-0.039891
-0.040750
-0.058218
-0.115932
-0.056787
-0.018277
-0.020258
-0.012681
0.020339
-0.030296
0.030937
0.043192
0.082229
0.108329
0.144975
0.187697
0.203342
0.293874
0.346177
0.381489
0.441105
0.484703
0.566702
0.641363
0.680121
0.746623
0.797615
0.818880
0.905620
0.927596
0.951214
0.979612
1.018794
0.992950
0.994962
0.982615
0.973510
0.960040
0.937052
0.895014
0.857270
0.805523
0.733863
0.686266
0.616870
0.560755
0.506379
0.455411
0.422601
0.360401
0.297431
0.242829
0.234772
0.196393
0.140911
0.163780
0.147680
0.149667
0.144502
0.144132
0.147051
0.155599
0.174380
0.259579
0.263253
0.304582
0.334288
0.372235
0.438691
0.418139
0.508926
0.556491
0.578608
0.632726
0.683081
0.719462
0.778549
0.796608
0.836341
0.866263
0.892694
0.878354
0.909504
0.923896
0.918389
0.935290
0.923921
0.940783
0.921821
0.928410
0.898285
0.869538
0.863090
0.837024
0.805544
0.808475
0.806632
0.746286
0.679688
0.675519
0.642233
0.626745
0.561593
0.538251
0.525752
0.511090
0.462435
0.431362
0.409326
0.398418
0.355113
0.355952
0.329542
0.316797
0.294529
0.259455
0.303086
0.230698
0.229747
0.234357
0.215621
0.225706
0.193834
0.238498
0.194611
0.195116
0.153844
0.174462
0.168979
0.157678
0.157064
0.137252
0.151415
0.124970
0.136106
0.119804
0.099270
0.116270
0.100395
0.102486
0.080976
0.056961
0.108662
0.108839
0.061240
0.058645
0.066883
0.047636
0.078344
0.052447
0.088678
0.068057
0.040194
0.035454
0.040952
0.047642
0.036722
0.046389
0.015927
0.028048
0.037797
0.049493
0.033909
0.040392
0.015558
0.044182
0.031086
0.029032
0.032908
0.012805
0.037160
0.015061
-0.010863
-0.001925
0.019023
0.007522
0.002083
0.017853
0.023436
0.026308
-0.015682
-0.008302
0.005130
0.001400
0.005223
0.007190
0.045975
0.013603
-0.002778
-0.006206
-0.020754
-0.004132
0.011128
-0.003275
-0.009873
0.004497
-0.026682
-0.010093
0.023722
-0.001956
-0.008369
-0.009715
0.005187
-0.027513
0.012073
-0.009318
-0.017175
0.013517
-0.020520
-0.010664
0.000839
0.023881
0.003573
-0.017551
0.021099
0.007867
0.000213
0.004690
0.020674
-0.005246
-0.006974
-0.008063
-0.016923
0.000604
-0.016000
0.017501
-0.001434
0.020654
-0.013061
-0.013559
0.010776
-0.024153
-0.023454
-0.001044
0.011661
0.010931
0.007934
0.015030
-0.011955
-0.017759
-0.000624
-0.012604
0.000989
0.007692
0.007489
0.020236
-0.022480
0.004671
0.002298
-0.012369
-0.005703
0.000724
-0.012238
-0.029063
-0.014777
0.010013
-0.012356
0.013983
0.008485
0.003711
0.010020
-0.011050
-0.000010
0.013283
0.025705
0.026627
0.006205
0.049324
0.035243
0.022740
0.037782
0.050369
0.060859
0.078964
0.068207
0.076706
0.061265
0.138491
0.084937
0.102262
0.109695
0.104149
0.143589
0.124245
0.146543
0.143342
0.164697
0.157252
0.146992
0.144837
0.127819
0.154760
0.158988
0.092795
0.103227
0.113616
0.123275
0.050537
0.087345
0.076552
0.066421
0.047053
0.045000
0.022086
0.017959
0.011288
0.016660
0.027136
-0.003163
-0.019242
-0.027611
-0.039728
0.015664
-0.025775
-0.043728
0.004972
-0.034662
-0.056273
-0.031655
-0.024252
-0.040334
-0.057203
-0.030326
-0.038911
-0.034142
-0.062854
-0.019770
-0.045556
-0.007593
0.040067
0.012692
0.080145
0.083659
0.138670
0.186490
0.212541
0.238403
0.273749
0.339467
0.402610
0.450623
0.509718
0.574195
0.613803
0.667544
0.728134
0.786409
0.848173
0.893878
0.897863
0.938591
0.994297
0.998899
1.016987
1.024621
1.002977
0.962614
0.939474
0.928469
0.889467
0.855882
0.816054
0.784526
0.702978
0.635462
0.577828
0.519477
0.461155
0.395835
0.351715
0.321037
0.268025
0.229844
0.169439
0.178653
0.149759
0.154466
0.167480
0.137182
0.131288
0.132891
0.189833
0.240728
0.212203
0.249995
0.287048
0.321944
0.365050
0.408043
0.443773
0.475109
0.554379
0.581269
0.641581
0.649752
0.737207
0.754055
0.801701
0.844503
0.861925
0.877038
0.866860
0.908897
0.942006
0.936604
0.925425
0.940684
0.961991
0.920797
0.931261
0.904924
0.871250
0.871692
0.842716
0.817427
0.821031
0.733880
0.741098
0.694516
0.673009
0.625705
0.596792
0.591094
0.562286
0.517539
0.490103
0.483658
0.461255
0.416382
0.383860
0.374128
0.366857
0.329997
0.348067
0.297761
0.299235
0.256086
0.269777
0.263354
0.232728
0.245419
0.228970
0.236350
0.224027
0.198370
0.187396
0.180496
0.185900
0.173488
0.182484
0.146360
0.135648
0.117524
0.163603
0.134405
0.125726
0.117430
0.106495
0.106885
0.076608
0.126520
0.078354
0.074202
0.096240
0.069394
0.069951
0.066598
0.077101
0.054857
0.071142
0.073451
0.055374
0.037049
0.044414
0.051124
0.058604
0.022240
0.032812
0.035005
0.049808
0.041197
-0.005450
0.024582
0.042930
0.038525
0.026442
0.012219
0.044668
0.018751
0.014920
-0.007128
-0.009471
0.003125
-0.010202
-0.000233
-0.019069
0.013454
0.020271
0.033515
-0.026145
0.043093
-0.027545
-0.006855
-0.007464
0.006265
-0.022624
-0.006480
0.016039
-0.000351
0.005873
0.000792
-0.002304
0.003551
0.012065
0.016160
-0.001806
0.014536
-0.003554
-0.000350
-0.003557
0.011057
0.012006
-0.010525
-0.002927
0.009266
0.000659
0.002969
-0.006856
-0.008566
0.013801
-0.006412
-0.007207
-0.007057
0.002636
-0.013316
-0.005584
-0.037474
0.007280
-0.007830
-0.004741
0.005967
-0.011952
-0.000905
0.014791
-0.008803
0.012407
-0.001144
-0.014089
0.014198
-0.027732
-0.019709
0.008876
-0.008040
-0.015048
-0.012595
0.003161
-0.011822
-0.008359
0.012353
0.001295
0.008479
-0.000132
-0.004131
0.003384
0.012865
0.017700
-0.009946
0.005099
-0.009672
-0.003321
-0.002530
0.004525
-0.023806
-0.027414
0.010072
-0.001827
0.008862
0.020961
0.019349
-0.000392
-0.002073
0.000317
0.023922
0.014049
-0.004709
0.021008
0.012150
0.036222
0.031917
0.029848
0.027956
0.045585
0.059506
0.082979
0.062252
0.066321
0.061016
0.097083
0.099114
0.131296
0.099124
0.115467
0.139620
0.130210
0.134608
0.162936
0.151652
0.147342
0.149400
0.145986
0.126387
0.141305
0.157552
0.101941
0.104143
0.095862
0.089945
0.099401
0.086515
0.076687
0.057043
0.025979
0.034987
0.035120
0.030510
0.044253
0.003139
0.004223
0.035368
-0.001123
-0.015699
-0.000029
-0.019815
-0.018010
-0.020639
-0.026617
-0.001534
-0.016410
-0.052995
-0.065384
-0.013130
-0.052796
-0.008760
-0.059555
-0.027276
-0.023173
-0.052821
-0.011545
-0.005161
0.018092
0.026156
0.058463
0.100412
0.088070
0.153345
0.172145
0.213702
0.282978
0.330476
0.405639
0.428569
0.508768
0.569706
0.590510
0.672606
0.738144
0.782029
0.866009
0.890840
0.915626
0.966553
0.958689
1.002408
1.010068
0.994379
1.022991
0.955516
0.956844
0.890212
0.918374
0.852319
0.795128
0.719733
0.700975
0.649197
0.598467
0.530375
0.484799
0.407851
0.352188
0.308363
0.273346
0.242365
0.215143
0.149996
0.158742
0.145030
0.117545
0.129309
0.151292
0.181652
0.178816
0.207999
0.213406
0.248574
0.279840
0.308272
0.355494
0.405850
0.445690
0.507573
0.563050
0.599635
0.661302
0.678002
0.725131
0.751245
0.816079
0.803618
0.856017
0.874691
0.884119
0.913148
0.935130
0.944616
0.941224
0.962585
0.942761
0.916436
0.908597
0.928631
0.867311
0.907312
0.827270
0.810688
0.796701
0.755000
0.714693
0.706029
0.675047
0.653190
0.599675
0.570511
0.538650
0.515385
0.492752
0.461921
0.434325
0.414047
0.412482
0.362841
0.355291
0.329060
0.353700
0.280960
0.295792
0.322259
0.249023
0.239134
0.241814
0.257096
0.237531
0.200386
0.210189
0.189565
0.171789
0.182943
0.185092
0.153737
0.156503
0.181080
0.145518
0.134217
0.154829
0.144062
0.148930
0.122730
0.113990
0.106444
0.104707
0.109682
0.082558
0.079480
0.094962
0.090358
0.074751
0.072655
0.069611
0.079567
0.065772
0.054000
0.058921
0.052837
0.065536
0.031882
0.041026
0.035798
0.013382
0.070346
0.020751
0.015984
0.040847
0.023647
0.025209
0.051701
0.012943
0.025779
0.043632
0.024209
0.030606
0.029469
0.009251
0.026113
0.003571
0.020148
0.020303
0.011022
-0.018698
0.012236
0.017346
-0.009170
0.023851
-0.004543
-0.008510
0.000532
0.020119
0.010274
0.006793
0.016872
0.032074
0.005195
0.008609
0.008127
0.025425
-0.006431
0.002642
-0.016916
0.000923
-0.002478
0.021716
0.033437
0.007744
-0.000991
0.005614
-0.006414
-0.003661
0.007065
0.004691
-0.004163
-0.001999
0.015399
0.015878
-0.007871
0.004984
0.002357
-0.011885
-0.003684
-0.014982
0.012700
-0.021318
0.015247
0.002620
-0.005392
0.003689
0.009539
0.041989
-0.003351
0.008751
0.028820
0.003589
0.000754
0.054045
0.008010
-0.012761
0.011949
0.006135
0.006342
-0.012189
-0.005086
-0.006679
-0.006708
0.008140
0.030330
-0.020398
0.028272
0.012139
-0.025990
0.004516
-0.008775
0.004446
-0.004013
0.014751
0.002033
0.020341
-0.023239
0.007638
0.023941
-0.007991
0.013165
0.009502
0.025793
-0.011747
0.021310
0.008026
0.014721
0.012566
0.037418
0.023731
0.026971
-0.000422
0.043070
0.019941
0.065313
0.041661
0.063451
0.093757
0.062150
0.096342
0.090022
0.121015
0.132633
0.126248
0.125488
0.103949
0.146939
0.143246
0.166614
0.135407
0.122327
0.157368
0.163973
0.149924
0.155051
0.132462
0.130481
0.100403
0.088689
0.078791
0.076622
0.089748
0.058781
0.057389
0.047894
0.036081
0.051845
0.023883
0.014934
0.015378
0.017185
0.015957
-0.027370
0.007714
-0.033184
-0.019407
-0.037207
-0.012630
-0.061265
-0.026788
-0.030139
-0.072514
-0.033017
-0.036397
-0.066684
-0.055334
-0.028386
-0.007445
-0.029038
-0.046350
0.003509
0.001304
0.050799
0.063143
0.085865
0.114571
0.129354
0.203258
0.237754
0.258853
0.346496
0.414812
0.455420
0.496475
0.584386
0.621167
0.695790
0.730955
0.770309
0.818399
0.866356
0.904670
0.954225
0.981131
0.999497
1.019331
1.038185
0.992605
0.974581
0.973773
0.935354
0.916611
0.836479
0.821644
0.736011
0.682190
0.636300
0.572481
0.502202
0.473906
0.428172
0.335552
0.298461
0.247886
0.266153
0.197755
0.191820
0.160790
0.126248
0.109609
0.117202
0.139572
0.121367
0.164385
0.190658
0.219080
0.246864
0.306503
0.335008
0.363133
0.394688
0.447119
0.501324
0.545815
0.592766
0.639533
0.674212
0.731918
0.768379
0.799067
0.807207
0.832029
0.866899
0.903314
0.902404
0.945023
0.934281
0.938993
0.958805
0.922104
0.932144
0.897949
0.912366
0.889760
0.845797
0.835575
0.832312
0.780751
0.773276
0.728334
0.718323
0.675596
0.649568
0.628406
0.571767
0.568015
0.529951
0.490822
0.460662
0.449345
0.394441
0.409685
0.418141
0.356771
0.352196
0.349057
0.300933
0.291309
0.279476
0.265511
0.264807
0.226562
0.248070
0.227429
0.206641
0.195502
0.192261
0.158932
0.171241
0.177763
0.167432
0.158766
0.156560
0.138341
0.164856
0.140856
0.108259
0.110345
0.108801
0.105008
0.112669
0.126549
0.114982
0.112180
0.095151
0.106390
0.082916
0.062092
0.079832
0.066076
0.093216
0.027647
0.031981
0.050515
0.062975
0.045908
0.041712
0.053839
0.038606
0.043665
0.036441
0.027272
0.031712
0.023410
-0.001591
0.050041
0.010745
0.036697
0.008165
0.023153
0.016183
0.012417
0.017403
0.008197
0.010445
0.003856
0.019666
0.002932
0.021251
0.024139
0.000873
-0.015388
0.005492
0.024832
0.010399
-0.005584
-0.006736
-0.011955
-0.008976
-0.004227
-0.009577
-0.006422
0.001232
0.001482
-0.008879
-0.009606
0.019735
-0.004016
-0.001856
0.002689
-0.022992
-0.002580
-0.001076
0.007201
0.012897
-0.008330
-0.009724
-0.022398
0.007795
0.007027
0.024769
0.009444
0.016202
0.013129
0.021052
0.006822
0.000187
-0.026056
0.004636
0.006545
-0.013358
0.001205
0.029083
-0.015796
-0.004155
0.007699
0.012948
0.029827
0.000469
-0.002898
-0.021087
-0.056435
0.021040
-0.006068
-0.010379
0.010272
0.006878
-0.001642
-0.001132
0.017850
-0.009418
0.012969
-0.000673
-0.001701
0.009232
0.012258
-0.013387
0.006786
0.016571
-0.000010
0.005150
-0.019202
0.003334
-0.004716
0.006477
0.001865
0.003691
-0.001204
0.013122
0.000267
0.003593
-0.006656
-0.010918
-0.012357
0.007727
-0.011438
0.014295
0.037555
0.013537
0.015447
0.058117
0.020017
0.041083
0.040015
0.052361
0.057195
0.051005
0.072874
0.063967
0.082262
0.096832
0.093944
0.103341
0.125675
0.139980
0.157334
0.152287
0.145231
0.146473
0.124988
0.157766
0.140803
0.144905
0.125277
0.127925
0.126820
0.111606
0.098398
0.101695
0.117275
0.087821
0.074465
0.070740
0.037753
0.055910
0.023082
0.030140
0.029322
0.007407
0.016446
0.000985
0.011827
0.002569
-0.016637
-0.024340
-0.019314
-0.013224
-0.050738
-0.042480
-0.042076
-0.032712
-0.048853
-0.038196
-0.052660
-0.013288
-0.041663
-0.039183
-0.024232
-0.023657
0.006204
-0.033713
0.004131
-0.000409
0.041285
0.066533
0.122701
0.158182
0.188004
0.236240
0.288086
0.342720
0.384104
0.448148
0.527584
0.576641
0.610520
0.700187
0.746693
0.793712
0.851584
0.902863
0.930786
0.951906
0.974716
1.017581
0.987629
0.985621
0.995076
0.988784
0.937252
0.922101
0.890885
0.842912
0.807482
0.781091
0.703418
0.631480
0.600247
0.527439
0.437674
0.411372
0.351667
0.302549
0.272224
0.226845
0.178801
0.154985
0.132112
0.135643
0.131464
0.137023
0.132452
0.136655
0.175730
0.183277
0.238147
0.241095
0.299774
0.349450
0.387808
0.390297
0.475258
0.486618
0.553390
0.630619
0.627364
0.690793
0.734632
0.748181
0.804808
0.817997
0.872598
0.887887
0.927824
0.904696
0.926479
0.942780
0.952655
0.936560
0.952403
0.927918
0.913623
0.901750
0.879161
0.848818
0.860754
0.811321
0.772366
0.771252
0.737608
0.717030
0.691687
0.683701
0.594193
0.567599
0.523829
0.514140
0.490300
0.449775
0.385485
0.414710
0.391374
0.343164
0.346078
0.349893
0.330753
0.302096
0.308236
0.279052
0.274377
0.265438
0.248747
0.215992
0.238072
0.214602
0.224376
0.155251
0.213332
0.191998
0.177833
0.172970
0.166884
0.155480
0.154386
0.131460
0.150496
0.116555
0.169492
0.135190
0.105532
0.092006
0.083251
0.101337
0.069265
0.064385
0.088189
0.070786
0.057642
0.090711
0.064377
0.073254
0.054029
0.072042
0.059945
0.054471
0.051094
0.043615
0.039761
0.054877
0.014318
0.028895
0.026999
0.059702
0.034058
0.011207
0.066009
0.050153
0.029635
0.024313
0.034419
0.032021
0.009462
-0.001886
0.011817
-0.000903
0.033591
0.023359
-0.008569
-0.012246
0.008712
-0.005875
0.021625
0.031884
0.016113
0.019829
0.021968
0.013659
0.006200
-0.028098
0.003245
0.019699
-0.001636
0.008905
0.025975
0.022335
-0.022517
-0.004187
0.013362
-0.008492
-0.005237
-0.024956
-0.029990
-0.008095
-0.031996
-0.007657
-0.016651
-0.002063
0.028998
0.001112
0.004381
-0.007998
-0.019332
0.003868
0.005922
-0.003623
0.019464
0.010802
0.018403
-0.012250
0.001581
-0.023759
-0.003097
0.013145
-0.003425
-0.004194
-0.020951
-0.026267
0.010577
0.016101
-0.015356
-0.013811
-0.017892
-0.004491
0.024916
0.010823
0.003352
-0.001677
-0.002750
-0.000996
-0.034250
-0.001143
0.005314
-0.005931
-0.003965
0.006494
-0.020514
-0.009341
-0.003897
0.000303
-0.009182
0.011922
-0.000801
-0.001386
0.004212
-0.000238
-0.002407
-0.008309
-0.001679
-0.003970
0.009076
-0.002253
0.025628
0.016238
0.020732
-0.022506
-0.007436
0.006119
0.013236
0.059049
0.039252
0.037068
0.020510
0.038331
0.057288
0.064330
0.079007
0.068760
0.067579
0.075222
0.104841
0.121411
0.088061
0.124752
0.146058
0.117185
0.134546
0.131898
0.158601
0.157777
0.153478
0.158884
0.154714
0.152815
0.152788
0.158053
0.111392
0.139972
0.102585
0.113144
0.090930
0.077849
0.094054
0.039512
0.023573
0.066148
0.052955
0.019863
0.042465
0.012208
-0.005722
0.013082
0.030244
-0.009866
0.011653
-0.024446
-0.022198
-0.016085
-0.019712
-0.049622
-0.045509
-0.026622
-0.030360
-0.009386
-0.062603
-0.046614
-0.048813
-0.056972
-0.032902
-0.027522
-0.004478
0.008304
-0.001611
0.022994
0.061956
0.094499
0.121125
0.151824
0.170009
0.246107
0.288854
0.347169
0.388441
0.443175
0.522664
0.553591
0.648513
0.706166
0.741747
0.790012
0.844660
0.877317
0.910121
0.951404
0.990403
1.003748
0.999255
1.005736
0.986959
0.969624
0.993262
0.930715
0.900952
0.824454
0.797336
0.735871
0.685378
0.636287
0.606304
0.524015
0.463789
0.394058
0.342348
0.325999
0.241914
0.209596
0.196055
0.180926
0.178860
0.144577
0.146209
0.148313
0.161773
0.151765
0.162548
0.147962
0.185297
0.247455
0.282343
0.336936
0.368100
0.427550
0.438335
0.462074
0.545324
0.580609
0.651505
0.651376
0.730477
0.728634
0.772490
0.801968
0.865897
0.887086
0.888829
0.917583
0.940559
0.934587
0.926120
0.942718
0.944882
0.945978
0.914015
0.917938
0.879977
0.852798
0.871746
0.812260
0.803941
0.738877
0.721262
0.707164
0.655173
0.645902
0.607280
0.588508
0.537002
0.540443
0.487068
0.465934
0.465446
0.402167
0.403543
0.369874
0.381936
0.370089
0.325170
0.294743
0.280561
0.287053
0.280609
0.278827
0.258927
0.215811
0.242930
0.250476
0.212891
0.159273
0.217320
0.166581
0.175828
0.167544
0.188715
0.124616
0.123625
0.158810
0.130398
0.131918
0.140211
0.110855
0.109011
0.145619
0.090475
0.099268
0.094672
0.060636
0.091684
0.076034
0.067209
0.085730
0.078368
0.090329
0.053963
0.062254
0.023366
0.065207
0.052842
0.024527
0.052036
0.052635
0.037903
0.044230
0.053060
0.027536
0.015117
0.019272
0.010992
0.004561
0.025175
0.019130
0.040970
0.024144
0.007566
0.020337
0.039843
0.031172
0.005798
-0.005239
0.004218
-0.002867
0.003414
0.004626
0.007282
-0.007175
0.010462
0.013086
0.031428
0.014463
0.017087
0.004273
0.008310
-0.002252
0.052456
-0.006629
-0.012923
0.002580
0.006830
0.014564
0.004499
0.006495
0.021859
0.001328
0.007885
-0.027527
-0.010954
0.009680
0.002363
0.024753
0.009468
-0.016035
0.032944
-0.008970
-0.011068
-0.004942
0.027819
0.009479
0.019422
0.008002
-0.005060
-0.014731
-0.013285
0.008414
0.007861
0.016726
0.005728
0.007027
0.022095
0.008675
-0.015393
0.014899
-0.005873
0.038904
-0.004618
0.007769
0.019599
0.020621
-0.017258
0.013039
0.007401
0.012401
0.015907
0.014858
0.006407
0.012378
0.018278
-0.047244
0.006506
-0.020455
0.015140
-0.025323
0.000131
0.005557
-0.010215
0.009015
0.001229
-0.019824
-0.000263
-0.010483
0.021502
-0.009808
0.021991
-0.001572
0.004601
0.012827
0.025320
0.001398
-0.015748
0.036291
0.021741
0.003726
0.033479
0.023070
0.032125
0.040167
0.024402
0.031364
0.058395
0.065732
0.075332
0.083799
0.088496
0.105387
0.122371
0.105280
0.158450
0.137531
0.122626
0.143935
0.165707
0.150297
0.150446
0.161430
0.156407
0.142304
0.131044
0.123600
0.150860
0.134129
0.086369
0.086037
0.086879
0.086189
0.033749
0.057709
0.065243
0.043472
0.061490
0.028601
0.014950
0.033675
0.008194
0.019800
0.004619
-0.014047
0.011164
-0.039024
-0.046425
-0.049734
-0.049660
-0.045467
-0.043246
-0.039556
-0.060361
-0.071780
-0.019542
-0.074028
-0.033532
-0.058298
-0.047603
-0.007977
-0.042763
-0.000764
0.007105
0.022053
0.044399
0.076217
0.107917
0.164559
0.192745
0.251356
0.288732
0.362744
0.399107
0.470483
0.485851
0.515439
0.611651
0.677006
0.737965
0.790970
0.833560
0.911608
0.934271
0.964988
0.973806
0.980206
1.000726
0.983047
0.999539
1.007865
0.987830
0.910252
0.899068
0.852851
0.785934
0.750998
0.687644
0.632106
0.581389
0.528148
0.466142
0.391594
0.354346
0.280400
0.263839
0.257250
0.217850
0.150401
0.186326
0.139555
0.105060
0.153647
0.146625
0.147205
0.183400
0.185240
0.225598
0.255950
0.291746
0.331528
0.354942
0.392171
0.464702
0.499038
0.547941
0.590295
0.655120
0.664570
0.731001
0.778851
0.784378
0.809277
0.830849
0.877204
0.900516
0.930722
0.960205
0.940677
0.933255
0.954226
0.916722
0.906530
0.929466
0.916722
0.906335
0.870306
0.839858
0.779020
0.785921
0.756643
0.764336
0.670027
0.685942
0.621328
0.606657
0.554320
0.562661
0.526432
0.497878
0.452033
0.454456
0.406687
0.409880
0.390178
0.372340
0.332040
0.300119
0.315886
0.279859
0.241197
0.270788
0.222163
0.233231
0.216439
0.242253
0.170325
0.189956
0.212968
0.201042
0.181079
0.214713
0.194254
0.159814
0.150310
0.155906
0.145442
0.133035
0.143984
0.126093
0.125527
0.139218
0.108574
0.119752
0.095538
0.090302
0.084046
0.060335
0.052875
0.042142
0.070406
0.066502
0.070434
0.062684
0.074510
0.020160
0.048763
0.058583
0.037244
0.018902
0.043012
0.049043
0.033790
0.060037
0.017073
0.028837
0.063380
0.021928
0.031266
0.013732
0.034869
-0.005065
0.026099
0.043736
0.025925
0.028356
0.021676
0.035429
0.012572
0.000584
0.005654
0.000954
-0.004266
-0.010159
0.023568
0.007986
0.023598
-0.001801
0.005376
0.010810
0.012149
0.033208
0.016352
-0.026094
-0.000652
0.005719
-0.001972
0.001562
-0.011660
-0.004331
0.017565
-0.030282
-0.004826
-0.005569
0.036553
0.008926
-0.013267
-0.002150
-0.011303
-0.010976
0.038070
-0.013761
-0.024266
-0.012995
-0.012201
0.014997
-0.001753
0.005081
-0.010499
-0.011158
-0.000225
-0.002793
-0.011119
-0.030588
0.007583
0.009947
0.007690
-0.014894
-0.011199
0.020909
0.021485
-0.021577
-0.011049
0.007265
-0.000511
-0.020002
0.000302
0.002316
-0.018285
-0.027101
-0.004373
-0.015613
0.001712
-0.031525
-0.001741
0.018631
-0.028261
-0.009321
0.000661
-0.005427
0.012322
0.038207
0.025227
0.002877
-0.015200
-0.004926
0.001559
0.004166
0.000705
0.000968
0.006798
-0.003902
0.013741
0.013129
-0.007895
0.005397
0.013376
-0.005958
-0.008116
0.024568
0.008419
0.011249
0.052844
0.029000
0.020589
0.036654
0.078315
0.074344
0.046495
0.080912
0.054189
0.095141
0.090131
0.100988
0.124144
0.102943
0.114457
0.137393
0.159391
0.176535
0.154744
0.141598
0.137804
0.147779
0.156339
0.155531
0.116541
0.126064
0.108790
0.123525
0.097176
0.097808
0.074283
0.082498
0.047194
0.056672
0.052356
0.052338
0.037058
0.010163
0.006593
0.005241
0.005027
-0.030255
-0.023617
-0.018177
-0.009752
-0.017876
-0.029637
-0.046487
-0.033677
-0.033494
-0.056687
-0.054979
-0.038648
-0.065159
-0.081384
-0.047814
-0.039097
-0.011073
-0.052582
-0.017634
0.015303
0.008240
0.049382
0.080761
0.071496
0.116032
0.137644
0.194381
0.212134
0.275102
0.364042
0.389616
0.466164
0.528269
0.542584
0.631395
0.694752
0.723486
0.816967
0.812736
0.891252
0.929316
0.974627
0.981185
0.978497
1.023430
1.011324
1.000243
0.998370
1.006055
0.950287
0.890460
0.851374
0.802856
0.723403
0.691978
0.627394
0.564989
0.506800
0.477851
0.369745
0.343455
0.325696
0.293212
0.238402
0.158418
0.195420
0.156626
0.174930
0.128926
0.123347
0.172575
0.159156
0.170010
0.235281
0.211411
0.253991
0.279857
0.339032
0.364645
0.421567
0.434118
0.498518
0.542562
0.581607
0.635687
0.641333
0.727972
0.734731
0.795581
0.812329
0.873166
0.880704
0.896783
0.906107
0.909908
0.921887
0.914532
0.941168
0.923733
0.956111
0.893130
0.896202
0.874848
0.864881
0.859486
0.804885
0.764192
0.779807
0.727406
0.673105
0.675698
0.608398
0.639562
0.558735
0.563875
0.572527
0.489715
0.461529
0.445816
0.380618
0.405483
0.354682
0.343955
0.354850
0.301487
0.296137
0.283504
0.297396
0.256115
0.287798
0.238215
0.235952
0.228377
0.199391
0.218584
0.210907
0.190739
0.191418
0.169461
0.187198
0.129156
0.121837
0.123279
0.176496
0.123189
0.125633
0.163760
0.111601
0.116063
0.079050
0.115208
0.062282
0.116491
0.099342
0.076767
0.092992
0.075371
0.038430
0.039662
0.052898
0.066545
0.054120
0.052809
0.079483
0.024396
0.019956
0.059586
0.042062
0.048990
0.049858
0.028598
0.036335
0.045681
0.011272
0.047819
0.042932
0.010396
0.020550
0.034485
0.012887
0.034897
-0.002762
0.018211
0.003323
0.001613
0.009876
0.032463
0.022740
-0.028540
0.015706
-0.018834
0.001095
0.012476
0.011248
0.001357
-0.026190
-0.004992
0.000958
0.015468
0.012304
0.008394
-0.006578
-0.007817
0.000080
0.000870
0.007709
0.009258
0.007971
-0.001234
-0.004163
0.009853
0.001315
-0.013887
0.020509
-0.010305
-0.001794
-0.008335
0.003963
0.000727
0.003880
0.005394
-0.013416
0.005723
-0.016856
-0.014891
-0.017327
0.009947
0.015038
-0.013469
-0.030093
0.015496
-0.009913
0.039401
-0.003296
0.019947
-0.001717
0.000937
-0.003080
-0.006485
-0.033539
0.011893
-0.011348
0.012693
-0.006307
-0.008548
-0.011022
0.010410
0.006749
-0.005080
-0.008267
-0.005746
0.026239
-0.011568
0.020186
-0.027823
0.003258
0.021227
-0.030884
0.009167
0.004127
0.011235
-0.019181
-0.011471
-0.019751
0.014918
-0.019672
-0.023533
0.013156
0.014336
0.001951
0.004569
0.012879
-0.001611
0.007145
0.007167
0.022194
0.018201
0.013478
0.027826
0.019559
0.010145
0.044208
0.051722
0.022249
0.033215
0.067847
0.068100
0.090783
0.069667
0.083186
0.098688
0.105081
0.131971
0.148686
0.141827
0.145284
0.131569
0.159101
0.152039
0.117882
0.135537
0.143515
0.157940
0.103053
0.121975
0.129444
0.117750
0.105394
0.068265
0.071647
0.074272
0.058296
0.060849
0.048171
0.044454
0.050257
0.049992
0.032743
0.028685
0.047914
-0.002077
-0.015995
-0.004395
-0.025496
-0.007639
-0.002957
-0.033368
-0.040756
-0.075735
-0.050404
-0.027163
-0.001519
-0.064122
-0.060904
-0.059343
-0.053489
-0.009406
-0.052888
-0.039141
0.015446
0.028528
0.041971
0.051100
0.101344
0.131902
0.157280
0.195489
0.223235
0.322609
0.324156
0.384322
0.467857
0.511442
0.561295
0.612320
0.697680
0.746933
0.802567
0.845277
0.888780
0.958895
0.952696
0.991502
0.991123
0.999889
1.000973
0.988757
0.984161
0.974376
0.943043
0.919954
0.835421
0.801319
0.728311
0.684870
0.614956
0.571287
0.479352
0.457025
0.427314
0.326740
0.320902
0.255183
0.243208
0.195029
0.174565
0.185735
0.139511
0.174684
0.135418
0.143945
0.163482
0.132258
0.218713
0.210253
0.254795
0.290459
0.340495
0.391948
0.404349
0.458164
0.509680
0.544541
0.602146
0.646004
0.666733
0.717324
0.744916
0.790870
0.834858
0.855380
0.867508
0.924876
0.903908
0.910421
0.919683
0.937940
0.942161
0.948853
0.942143
0.902513
0.888413
0.894342
0.862783
0.848873
0.806693
0.790214
0.749338
0.754844
0.704759
0.675565
0.631854
0.601725
0.595392
0.551647
0.554116
0.488580
0.467666
0.435691
0.406577
0.404995
0.363030
0.366931
0.343638
0.319153
0.311505
0.288874
0.251585
0.268218
0.259347
0.213407
0.233859
0.207822
0.205494
0.190938
0.218305
0.185936
0.193304
0.178468
0.152592
0.150296
0.153280
0.132801
0.152554
0.138663
0.131801
0.125106
0.115372
0.093428
0.102790
0.096942
0.103918
0.092982
0.091272
0.072809
0.077859
0.045220
0.073223
0.072214
0.052577
0.072347
0.057027
0.069436
0.023781
0.045478
0.023031
0.020069
0.004311
0.062258
0.038686
0.007361
0.048653
0.021578
0.022993
-0.009244
0.054900
0.018957
-0.001743
-0.016837
0.016327
0.011880
0.016680
0.035174
0.009665
-0.008083
-0.000168
0.012939
-0.004186
-0.013636
0.005380
0.017776
0.009179
0.003895
-0.005870
0.001662
0.018268
0.018213
-0.021803
-0.013977
-0.034376
0.013634
-0.008862
0.018709
-0.017327
0.003363
0.001119
-0.019878
0.026058
-0.015180
0.007599
0.035288
0.007850
-0.004246
0.004329
0.002400
0.022082
0.014197
-0.005066
-0.008181
-0.022400
-0.002553
0.018217
-0.006346
-0.022744
-0.011613
-0.031489
0.011379
0.002570
-0.002121
-0.011440
0.006866
-0.012115
0.001897
0.015262
-0.001218
-0.007738
0.037370
0.010044
0.019994
0.002194
0.022375
0.003579
0.003671
-0.004716
0.007619
-0.000593
-0.005119
-0.000080
-0.003240
0.000483
0.008304
-0.016128
-0.021134
0.003697
0.010056
-0.019289
0.033850
-0.020415
-0.016937
-0.025287
0.003191
-0.000377
0.006818
0.026967
0.036098
0.002146
0.010541
-0.015089
0.032306
-0.002828
-0.006837
0.021126
0.012507
0.044224
0.006439
0.023657
0.017109
0.026496
0.045545
0.005598
0.020353
0.036390
0.058213
0.040828
0.058650
0.075870
0.083898
0.093841
0.104088
0.118672
0.093503
0.107815
0.106986
0.130046
0.159043
0.118265
0.143629
0.132272
0.144865
0.166686
0.153700
0.146477
0.146299
0.128018
0.149105
0.096385
0.112603
0.123736
0.079571
0.100738
0.086034
0.083201
0.051532
0.038954
0.072092
0.039208
0.030833
-0.007784
-0.015837
0.001222
0.017924
-0.025990
-0.009935
-0.002718
-0.015688
-0.024673
-0.027100
-0.008819
-0.049576
-0.044558
-0.062208
-0.033162
-0.028757
-0.059834
-0.068343
-0.041276
-0.027265
-0.032279
-0.018259
-0.001977
0.000099
0.054518
0.046908
0.075004
0.112024
0.169859
0.175109
0.260332
0.278243
0.354305
0.376043
0.461102
0.443960
0.565535
0.635497
0.681639
0.738165
0.804773
0.852110
0.879541
0.924054
0.971687
0.997212
1.015533
1.021386
1.009520
0.990685
0.977542
0.970939
0.934524
0.886115
0.841369
0.791832
0.744025
0.692264
0.647783
0.583509
0.500079
0.442211
0.429989
0.348827
0.295807
0.273424
0.218345
0.191222
0.148805
0.137828
0.153485
0.139884
0.116521
0.128811
0.164037
0.182304
0.223351
0.223493
0.286975
0.278429
0.303774
0.377731
0.428623
0.472767
0.483267
0.546388
0.586667
0.625883
0.698884
0.709219
0.754270
0.802339
0.799734
0.849890
0.878528
0.894405
0.908261
0.915016
0.942172
0.949236
0.935618
0.947169
0.918714
0.896556
0.913320
0.871870
0.869975
0.851597
0.830263
0.789669
0.736661
0.741326
0.695227
0.666040
0.643883
0.641107
0.607782
0.549749
0.509880
0.479858
0.471979
0.431360
0.418540
0.398928
0.397181
0.372522
0.336650
0.304651
0.311100
0.288396
0.281037
0.290385
0.248199
0.235671
0.268030
0.224388
0.219345
0.192965
0.211217
0.175147
0.194715
0.162330
0.160081
0.143952
0.130044
0.123135
0.129207
0.135292
0.127178
0.142352
0.126230
0.113005
0.086452
0.101856
0.084894
0.127462
0.090447
0.102579
0.083729
0.077200
0.063402
0.060247
0.053532
0.058728
0.070598
0.044124
0.013463
0.056442
0.041372
0.044527
0.060973
0.047120
0.034175
0.034475
0.037996
0.012842
0.036843
0.042037
-0.005926
0.025353
0.013817
-0.000103
0.023469
0.020885
0.020296
0.006929
0.030497
-0.004563
0.006255
0.028085
-0.012519
0.016260
-0.009529
-0.008112
0.006681
0.002590
0.028116
-0.005244
0.022823
-0.007841
-0.009310
0.002310
0.001135
-0.020180
0.000051
0.013521
0.014442
0.008429
0.017208
-0.013809
0.021675
0.019310
-0.001941
-0.022683
-0.005724
-0.001515
0.001051
-0.005155
-0.003533
-0.005633
0.004503
0.008253
0.022449
-0.018752
0.013551
-0.005821
-0.000120
0.009228
0.000875
-0.002721
0.011354
-0.011854
0.009068
-0.014966
0.000362
-0.010257
0.004139
0.018942
0.018492
0.017905
-0.014075
0.002063
-0.007054
0.000740
-0.006647
-0.002185
-0.011565
0.004141
0.003564
-0.008734
-0.007177
0.003147
0.001200
0.006994
-0.000328
0.002845
-0.000652
-0.012089
-0.001156
-0.013376
0.026443
-0.012551
-0.012683
-0.000793
0.006901
0.010571
0.007260
0.017943
-0.017911
0.026650
-0.011882
0.001954
0.026306
-0.014566
0.017081
-0.020421
-0.015386
0.008301
-0.004623
0.049726
0.000546
0.012436
0.011047
0.045010
0.034858
0.028157
0.050151
0.049270
0.099129
0.069472
0.096919
0.099744
0.101926
0.112019
0.142657
0.109527
0.137576
0.172962
0.140950
0.154123
0.137126
0.162471
0.148179
0.144710
0.142821
0.121081
0.135250
0.119543
0.149604
0.084584
0.089908
0.089259
0.070906
0.062628
0.047018
0.064191
0.062228
0.031321
0.019744
0.013571
0.025556
0.000140
0.024127
-0.000769
-0.021666
-0.043079
-0.005277
-0.011166
-0.042329
-0.035839
-0.025907
-0.023967
-0.032661
-0.067858
-0.058922
-0.061761
-0.026835
-0.058165
-0.004753
-0.031138
-0.046318
-0.032570
-0.007431
0.010354
0.054824
0.087640
0.071778
0.134920
0.169465
0.191092
0.227190
0.262240
0.335034
0.400719
0.466879
0.488688
0.567978
0.627063
0.668111
0.758562
0.776441
0.858170
0.882511
0.923565
0.933974
0.983410
1.016114
1.009379
1.022626
1.016151
0.986687
0.950581
0.937045
0.901238
0.862759
0.789884
0.739725
0.689874
0.650530
0.593931
0.534749
0.470729
0.378047
0.351556
0.322452
0.242127
0.255252
0.196828
0.166858
0.153984
0.155320
0.137906
0.118918
0.160105
0.144118
0.153221
0.172484
0.221626
0.271413
0.317162
0.309080
0.383044
0.411596
0.456974
0.495655
0.554859
0.561064
0.658319
0.664070
0.726761
0.746841
0.792575
0.841570
0.857604
0.851658
0.885142
0.902402
0.928613
0.919729
0.974185
0.947272
0.920597
0.931650
0.891728
0.901042
0.871543
0.873375
0.845921
0.810531
0.761928
0.754336
0.727688
0.693261
0.677119
0.661115
0.615283
0.554389
0.544007
0.521240
0.496552
0.474925
0.423342
0.433616
0.398789
0.370647
0.351839
0.352968
0.321240
0.314114
0.288121
0.275827
0.285245
0.235205
0.246206
0.250112
0.202995
0.211097
0.216917
0.181912
0.186060
0.174557
0.151525
0.169360
0.169002
0.131788
0.139464
0.151596
0.152131
0.145885
0.129844
0.121522
0.098431
0.098631
0.094520
0.101940
0.087834
0.088682
0.083935
0.073827
0.058285
0.054239
0.059248
0.065980
0.072885
0.067172
0.018319
0.060401
0.047439
0.068151
0.046737
0.035037
0.042402
0.042031
0.023064
0.037158
0.029442
0.025168
0.017233
0.004725
-0.005388
0.018738
0.032878
0.024547
0.013127
0.023334
0.019560
0.000014
0.029532
0.028471
0.016297
0.015073
-0.003954
0.030836
0.005872
0.016011
-0.006831
-0.003693
-0.012054
0.003061
0.009275
0.017906
0.032158
-0.002310
0.013156
0.023858
