-0.010661
0.010060
0.007018
0.003934
0.036921
-0.011261
0.009900
0.023509
0.018092
0.011347
0.010303
0.017581
0.026292
0.028716
0.013329
0.038519
0.030944
0.060464
0.074339
0.052593
0.080286
0.092132
0.086202
0.095673
0.080681
0.120135
0.102986
0.153133
0.139928
0.140143
0.159163
0.140338
0.172219
0.158038
0.167678
0.144238
0.132401
0.155506
0.131210
0.108085
0.141310
0.120366
0.120557
0.112138
0.073356
0.058068
0.077553
0.055768
0.035836
0.046531
0.059958
0.010683
0.009159
0.021060
0.035348
0.001376
0.002154
-0.005403
-0.006461
-0.018864
0.017837
-0.052113
-0.029383
-0.032298
-0.031031
-0.026501
-0.039860
-0.033454
0.004395
0.012501
0.096817
0.207753
0.268089
0.405782
0.498812
0.616551
0.741765
0.851937
0.925846
0.990873
0.940834
0.924698
0.841300
0.743877
0.618543
0.471214
0.328653
0.186305
0.076339
0.025019
-0.069545
-0.109772
-0.117873
-0.119755
-0.147853
-0.113628
-0.068834
-0.062147
-0.057090
-0.023869
0.019959
0.027467
0.045215
0.046206
0.071628
0.063971
0.067678
0.096835
0.066647
0.079379
0.102281
0.086857
0.139366
0.093304
0.101683
0.099191
0.139057
0.116782
0.152508
0.169496
0.156035
0.158739
0.162031
0.165671
0.201046
0.159116
0.171880
0.196349
0.204165
0.189993
0.230302
0.233069
0.230938
0.239123
0.207340
0.248815
0.235314
0.271303
0.260163
0.258313
0.276516
0.254796
0.271193
0.278502
0.286925
0.274933
0.263100
0.293073
0.288098
0.303460
0.301077
0.294570
0.287001
0.306241
0.289412
0.300644
0.302559
0.312690
0.300272
0.289310
0.327949
0.305992
0.301483
0.286719
0.299246
0.270773
0.274617
0.285668
0.287356
0.305377
0.290781
0.268687
0.266291
0.270922
0.241326
0.206596
0.239025
0.221627
0.251954
0.223138
0.245348
-0.007464
0.004257
-0.049419
-0.005853
0.012812
0.007697
0.009371
0.011449
-0.001943
-0.000038
-0.023412
0.017626
0.004833
0.033690
0.033742
0.034037
0.037995
0.042824
0.054009
0.066654
0.080120
0.113415
0.094891
0.104163
0.115890
0.156893
0.159294
0.134699
0.157720
0.138853
0.144253
0.161200
0.151592
0.158694
0.164781
0.139103
0.154383
0.123768
0.126707
0.082029
0.084316
0.094572
0.108152
0.092697
0.047213
0.081368
0.067173
0.065439
0.032562
0.037687
0.026833
0.032804
0.014911
0.014022
0.005076
0.034719
0.005678
-0.023083
-0.022725
-0.032761
-0.007314
-0.015591
-0.038496
-0.051201
-0.034189
-0.037234
-0.038160
-0.019833
-0.010775
0.063261
0.127398
0.174477
0.261894
0.405553
0.505267
0.648017
0.749490
0.845730
0.916568
0.972001
0.972879
0.908654
0.847275
0.734302
0.610229
0.454916
0.352307
0.229915
0.105951
-0.005917
-0.075881
-0.102349
-0.127206
-0.144113
-0.110130
-0.104798
-0.074015
-0.043992
-0.009683
-0.021553
-0.012660
0.029589
0.036659
0.045550
0.060427
0.077377
0.088665
0.057260
0.073837
0.108981
0.120581
0.087138
0.129015
0.124140
0.120977
0.088149
0.124539
0.119070
0.126358
0.153616
0.130205
0.129941
0.167265
0.188490
0.172493
0.208416
0.178360
0.200328
0.200875
0.215360
0.216690
0.208054
0.231908
0.235672
0.238344
0.224050
0.233367
0.229753
0.241074
0.228022
0.263135
0.260465
0.278359
0.246385
0.278156
0.292763
0.280332
0.299318
0.292386
0.308110
0.305617
0.304317
0.293715
0.312553
0.317032
0.295298
0.290896
0.327619
0.299298
0.283232
0.279537
0.282943
0.298150
0.289048
0.326069
0.295857
0.281444
0.293394
0.263966
0.276281
0.290763
0.271589
0.277253
0.253514
0.255769
0.268094
0.266355
0.255263
0.226842
0.265544
0.265121
0.017630
0.008151
-0.016835
0.002192
0.005918
0.002111
-0.008564
-0.011661
-0.011259
0.008648
-0.005328
0.053436
-0.002127
0.040718
0.045286
0.014579
0.055339
0.047983
0.061149
0.069602
0.062502
0.089845
0.080754
0.120088
0.108081
0.114282
0.120846
0.156997
0.170420
0.168108
0.153659
0.133374
0.172159
0.143063
0.148116
0.163542
0.129232
0.123286
0.118652
0.102266
0.108128
0.113384
0.081692
0.097104
0.097442
0.059416
0.044478
0.041036
0.054682
0.029674
0.032476
0.009104
0.015001
0.041222
0.000614
0.001381
-0.026344
-0.000010
-0.003442
-0.007299
-0.032529
-0.044190
-0.033520
-0.043247
-0.062863
-0.038949
-0.065388
-0.053839
-0.003124
0.040791
0.099510
0.185060
0.286016
0.388322
0.520055
0.622913
0.766515
0.872314
0.924097
0.954563
0.975818
0.898478
0.839138
0.733681
0.617479
0.454484
0.321164
0.196435
0.083575
0.008427
-0.060741
-0.102651
-0.123539
-0.104451
-0.073934
-0.087671
-0.061445
-0.087924
-0.011025
0.003229
0.010292
0.055781
0.030245
0.064212
0.090677
0.061670
0.100672
0.096994
0.086058
0.093250
0.117872
0.103281
0.095084
0.149824
0.156260
0.135109
0.143581
0.128482
0.133892
0.116896
0.144651
0.172676
0.147794
0.177611
0.179354
0.200796
0.181001
0.182550
0.223998
0.202643
0.207516
0.231758
0.233735
0.260582
0.211527
0.225156
0.239826
0.233839
0.238910
0.234365
0.251696
0.259927
0.292220
0.274837
0.273842
0.291854
0.272266
0.305234
0.276625
0.281868
0.268176
0.288449
0.313141
0.307404
0.296570
0.299865
0.280993
0.317720
0.304092
0.315672
0.275381
0.274308
0.320281
0.317172
0.280680
0.276306
0.270555
0.292231
0.257780
0.273475
0.264753
0.255634
0.269823
0.259446
0.256023
0.219552
0.252157
0.250312
0.234766
0.223544
0.235410
0.023218
0.013972
0.001835
-0.023992
0.003929
-0.003505
-0.007722
0.000021
-0.011650
0.037279
-0.001222
0.015547
0.045901
0.023938
0.042512
0.022396
0.040885
0.086995
0.037574
0.051991
0.103182
0.082638
0.098441
0.093184
0.115661
0.116898
0.149673
0.129656
0.103700
0.136782
0.164663
0.133926
0.162355
0.127185
0.156362
0.116278
0.140658
0.143146
0.132043
0.107472
0.097029
0.105790
0.083283
0.069042
0.083010
0.073321
0.072320
0.030184
0.052060
0.042123
0.008166
0.042453
0.033770
-0.007418
-0.004140
0.011630
0.002770
-0.007343
-0.020435
-0.006195
-0.005405
-0.027051
-0.012776
-0.046786
-0.047010
-0.052324
-0.045868
-0.017556
-0.001157
0.044855
0.086271
0.171057
0.294547
0.395334
0.525773
0.666196
0.767544
0.840883
0.942792
0.973130
0.976519
0.936748
0.878304
0.729574
0.617524
0.456808
0.325055
0.208870
0.088504
0.008004
-0.052379
-0.112105
-0.128690
-0.146806
-0.119486
-0.099233
-0.078454
-0.024067
-0.019613
-0.010230
0.015077
0.015293
0.026710
0.054849
0.060259
0.078254
0.090942
0.086248
0.094569
0.113965
0.119759
0.132210
0.131184
0.143664
0.126083
0.116558
0.140769
0.144655
0.140862
0.163148
0.155299
0.175513
0.158187
0.180677
0.176196
0.217067
0.212775
0.201973
0.200741
0.223451
0.229374
0.214777
0.225618
0.201878
0.245801
0.235186
0.247868
0.242410
0.273381
0.248532
0.274329
0.260810
0.278543
0.257938
0.280342
0.273412
0.297510
0.274963
0.307950
0.288663
0.279817
0.282053
0.299974
0.303871
0.315675
0.301384
0.315733
0.265275
0.293233
0.281828
0.282322
0.328902
0.315347
0.306421
0.312478
0.294467
0.294437
0.283403
0.283684
0.294617
0.273489
0.244830
0.283303
0.277077
0.277103
0.248927
0.262291
0.231644
0.211592
0.241781
0.246709
0.000982
0.011152
0.010970
0.000063
0.015067
-0.004207
0.007024
0.020738
0.009971
0.014482
-0.009956
-0.008235
0.011127
0.051334
0.050851
0.030404
0.051293
0.043376
0.063234
0.053041
0.076712
0.071432
0.078805
0.116628
0.125553
0.101844
0.122012
0.136410
0.148433
0.121182
0.139812
0.154649
0.126498
0.142136
0.137542
0.123056
0.137730
0.123590
0.101292
0.100472
0.118541
0.086072
0.083816
0.095132
0.101251
0.044852
0.057668
0.052465
0.034205
0.025444
0.032064
0.039741
0.018401
0.030744
0.007572
0.025541
-0.006624
0.010192
-0.008834
-0.016403
-0.025496
-0.014658
-0.039153
-0.005308
-0.069457
-0.038729
-0.036765
-0.026383
0.022564
0.046040
0.079208
0.179923
0.297889
0.390518
0.516056
0.631026
0.755536
0.830066
0.903736
0.971203
0.950104
0.921647
0.830341
0.746083
0.612959
0.468142
0.332702
0.210004
0.113409
0.034560
-0.051817
-0.103877
-0.152910
-0.124745
-0.132961
-0.094916
-0.050126
-0.044272
-0.033605
-0.007390
0.040103
0.031204
0.022812
0.053054
0.083368
0.051098
0.082985
0.091712
0.116088
0.107294
0.105464
0.100246
0.106845
0.105744
0.153944
0.111911
0.129141
0.137767
0.164736
0.143040
0.168343
0.155034
0.170297
0.175957
0.209075
0.168729
0.200737
0.213580
0.215375
0.197017
0.199451
0.206848
0.243869
0.230497
0.233747
0.233320
0.228493
0.241206
0.250081
0.256180
0.246546
0.262470
0.260027
0.285636
0.289625
0.281564
0.279616
0.303436
0.296775
0.300746
0.299212
0.287008
0.300685
0.325914
0.303605
0.303237
0.310646
0.324946
0.286178
0.296431
0.293120
0.288357
0.293505
0.314415
0.326815
0.300257
0.305355
0.257425
0.299719
0.286578
0.241217
0.258407
0.278896
0.243478
0.261183
0.259853
0.246596
0.237570
0.242114
0.226862
0.215801
-0.025371
0.018052
0.002905
-0.004256
0.010951
-0.014339
-0.007970
0.012713
-0.003016
0.016461
0.012404
0.004484
0.001981
0.025218
0.023371
0.018929
0.053939
0.046174
0.047746
0.080386
0.070861
0.090646
0.094959
0.106693
0.100681
0.109166
0.113663
0.126295
0.166044
0.128434
0.182495
0.146085
0.170316
0.162813
0.171645
0.136933
0.131529
0.148309
0.135039
0.100335
0.118791
0.091360
0.082793
0.085050
0.071336
0.091822
0.068263
0.058164
0.038707
0.011315
0.034538
0.027721
0.010287
0.021978
0.034541
-0.016565
0.001866
0.010477
-0.021118
-0.050748
-0.024820
-0.015458
-0.027749
-0.063158
-0.042299
-0.035076
-0.031600
-0.020673
0.007299
0.016133
0.105850
0.170232
0.278854
0.409313
0.502580
0.651338
0.731182
0.848929
0.916871
0.979094
0.968360
0.928020
0.823306
0.739455
0.603978
0.474089
0.325780
0.221357
0.092624
0.020733
-0.047883
-0.115552
-0.082171
-0.140757
-0.119390
-0.106215
-0.109841
-0.027267
-0.038249
0.022883
0.020144
0.033827
0.064353
0.045279
0.062660
0.044015
0.094039
0.067810
0.093713
0.102812
0.117910
0.123828
0.125535
0.088916
0.142619
0.121999
0.128390
0.140691
0.158359
0.182140
0.192059
0.153948
0.174632
0.164008
0.196529
0.182651
0.198807
0.173342
0.181460
0.178265
0.213086
0.212378
0.250014
0.235057
0.238624
0.248629
0.235485
0.234034
0.262562
0.236759
0.255237
0.267571
0.284011
0.292378
0.282694
0.282495
0.262304
0.289431
0.309660
0.294668
0.308202
0.296923
0.291663
0.291168
0.285241
0.301223
0.300188
0.279273
0.298744
0.296626
0.283606
0.295907
0.259812
0.276452
0.290499
0.311049
0.277591
0.286703
0.281950
0.268190
0.257887
0.248550
0.263138
0.271264
0.283093
0.270817
0.234189
0.243371
0.225801
0.225135
0.232264
-0.012787
0.021100
0.018877
0.021211
0.000284
0.041164
-0.017391
0.014843
0.015973
0.007601
0.026546
0.024749
0.013579
0.023636
0.027634
0.042116
0.038789
0.036432
0.074884
0.070340
0.052528
0.087361
0.110008
0.097323
0.095748
0.125471
0.146746
0.125784
0.161674
0.143075
0.142576
0.127465
0.123930
0.122253
0.166303
0.161136
0.120435
0.122174
0.126761
0.114712
0.088092
0.138879
0.103027
0.095054
0.083319
0.056364
0.053577
0.038156
0.043918
0.036305
0.005393
0.017812
0.026769
0.017281
0.007383
0.018459
0.014371
0.021120
-0.017312
-0.013723
-0.048721
-0.029576
-0.026771
-0.026033
-0.064103
-0.030416
-0.063184
-0.050373
-0.017549
0.020934
0.093275
0.151747
0.302295
0.399424
0.520875
0.634183
0.793994
0.851104
0.916249
0.961970
0.985915
0.911460
0.822906
0.742216
0.631804
0.478446
0.328782
0.198136
0.099644
0.002339
-0.071755
-0.132247
-0.140209
-0.138151
-0.117062
-0.073585
-0.079194
-0.047280
-0.033316
0.003743
0.008452
0.049343
0.031209
0.063565
0.040124
0.064224
0.071957
0.087231
0.121666
0.086992
0.114399
0.078024
0.089828
0.139252
0.144576
0.174109
0.156883
0.154485
0.175623
0.155179
0.153362
0.183876
0.188271
0.168454
0.156797
0.189373
0.203296
0.192169
0.180989
0.222894
0.219587
0.207690
0.223230
0.220542
0.196201
0.242203
0.234482
0.231287
0.274413
0.276646
0.214778
0.280742
0.258922
0.293087
0.284165
0.298487
0.252563
0.279686
0.277042
0.275287
0.327062
0.307176
0.291777
0.298774
0.298162
0.299153
0.315344
0.257826
0.313686
0.338744
0.274265
0.288320
0.312922
0.264117
0.285129
0.292106
0.305641
0.279144
0.268203
0.242446
0.284513
0.293993
0.252548
0.250274
0.267257
0.263439
0.245381
0.253743
0.246761
0.238777
0.259837
-0.002087
0.024592
0.013279
-0.003228
0.003813
0.001622
0.008952
0.020085
0.039470
0.015910
0.004043
0.021749
0.012581
0.024089
0.065609
0.044992
0.031001
0.074454
0.043337
0.055089
0.070995
0.063200
0.103734
0.101368
0.102106
0.125697
0.128154
0.128263
0.145889
0.110159
0.125304
0.128449
0.139606
0.122764
0.163368
0.134317
0.133497
0.114374
0.142956
0.106401
0.103728
0.106195
0.100666
0.084407
0.070130
0.071836
0.037290
0.059406
0.056324
0.066601
0.030885
0.019282
0.008556
0.040328
0.018201
-0.002648
0.030884
-0.018599
0.008642
-0.012935
-0.027066
-0.031764
-0.023011
-0.027157
-0.048763
-0.040314
-0.034276
-0.016773
0.011006
0.030593
0.083350
0.173517
0.287967
0.374568
0.509085
0.638187
0.770028
0.834655
0.925192
0.964747
0.999296
0.909906
0.836791
0.725530
0.575244
0.449704
0.327982
0.181245
0.082876
-0.008644
-0.085996
-0.129746
-0.129649
-0.110490
-0.136082
-0.074335
-0.085302
-0.037943
-0.011621
0.003341
0.003723
0.053575
0.043284
0.044318
0.055800
0.074774
0.106432
0.113753
0.080503
0.111152
0.094733
0.084418
0.102451
0.101323
0.131328
0.095560
0.128078
0.122585
0.146887
0.170842
0.165929
0.154233
0.188559
0.182659
0.142895
0.186398
0.172391
0.181903
0.204640
0.193867
0.227516
0.240214
0.232788
0.225406
0.240421
0.231393
0.260230
0.259989
0.246587
0.261380
0.255243
0.282282
0.264581
0.296645
0.295784
0.258280
0.279428
0.246795
0.289208
0.279179
0.294602
0.284965
0.285016
0.308086
0.297634
0.284531
0.281944
0.287922
0.315451
0.295352
0.272572
0.300384
0.321177
0.295220
0.290455
0.307297
0.276073
0.294107
0.285259
0.260865
0.290555
0.268293
0.275837
0.253503
0.262496
0.253222
0.262461
0.242467
0.230296
0.236856
0.226211
-0.014946
0.000278
-0.013551
0.003057
0.004117
0.019590
0.022698
-0.005164
0.031255
0.002579
0.011640
0.030508
0.010147
0.000196
0.038865
0.037348
0.043428
0.036911
0.067487
0.061669
0.103469
0.089168
0.075291
0.072701
0.085402
0.132096
0.135517
0.125072
0.129110
0.142627
0.149784
0.149276
0.146239
0.139613
0.127798
0.132294
0.151065
0.144658
0.110383
0.110563
0.128333
0.092187
0.075943
0.094254
0.069891
0.060511
0.079029
0.067187
0.042581
0.052992
0.044885
-0.001784
0.022782
0.022672
0.015473
0.009198
0.004408
0.010532
0.003852
-0.029695
0.006585
-0.021598
-0.036284
-0.034499
-0.062572
-0.067307
-0.030747
-0.033580
0.011375
0.029535
0.111579
0.175090
0.273682
0.400845
0.533199
0.649526
0.750278
0.852777
0.928788
0.978346
0.950114
0.932733
0.828304
0.733542
0.614005
0.466699
0.338771
0.192930
0.089260
0.001914
-0.034945
-0.096563
-0.149923
-0.141750
-0.116898
-0.077955
-0.101148
-0.040713
-0.007474
0.005030
0.033188
0.036760
0.045099
0.036610
0.073721
0.098705
0.097197
0.070976
0.089850
0.096483
0.095790
0.099607
0.117077
0.116923
0.124666
0.154053
0.144429
0.123919
0.142075
0.129415
0.168201
0.186743
0.170243
0.176005
0.191089
0.186779
0.209561
0.170403
0.190754
0.217794
0.212471
0.206833
0.221951
0.203906
0.232225
0.238667
0.224620
0.254276
0.239056
0.235653
0.263944
0.251581
0.282453
0.271155
0.279556
0.260380
0.244907
0.286728
0.296023
0.283358
0.309676
0.291034
0.292283
0.316337
0.291321
0.310410
0.323425
0.285269
0.285082
0.309006
0.293266
0.310279
0.253961
0.277592
0.284870
0.298325
0.283678
0.291929
0.307833
0.303013
0.294431
0.235468
0.244790
0.250447
0.228823
0.267430
0.249997
0.215164
0.228614
0.209978
0.211930
-0.001881
-0.008436
0.006469
0.015697
0.000219
-0.002423
-0.004589
-0.012848
0.006110
0.029274
0.007819
0.036644
-0.000589
0.040904
0.033595
0.029024
0.059190
0.022069
0.059000
0.066366
0.097582
0.097743
0.094262
0.096703
0.114806
0.103313
0.114916
0.112017
0.153558
0.167690
0.125930
0.146538
0.144771
0.149095
0.147944
0.154314
0.130913
0.134220
0.134860
0.107876
0.110712
0.069268
0.102354
0.065960
0.081932
0.041471
0.056660
0.040082
0.047880
0.034804
0.037767
0.012392
0.033187
0.023534
0.011843
-0.011480
0.019123
-0.008593
-0.000945
-0.027899
-0.028589
-0.023557
-0.056097
-0.077196
-0.047673
-0.033398
-0.050390
-0.009709
0.007075
0.059786
0.115033
0.199723
0.259746
0.382765
0.515296
0.634477
0.774790
0.872396
0.929452
0.949333
0.957147
0.938218
0.834224
0.720683
0.610885
0.456842
0.302938
0.188657
0.102311
-0.017539
-0.068554
-0.114396
-0.124617
-0.128744
-0.134957
-0.092179
-0.070760
-0.057331
-0.022659
0.021890
0.034496
0.022581
0.053244
0.100021
0.076098
0.075713
0.083596
0.092403
0.097751
0.080325
0.084660
0.114958
0.099410
0.107102
0.124516
0.127099
0.125674
0.126752
0.129859
0.141892
0.164942
0.139372
0.150675
0.161086
0.187636
0.186951
0.186400
0.168335
0.192964
0.187351
0.209122
0.216915
0.251756
0.244893
0.243388
0.241185
0.277401
0.239101
0.254145
0.228292
0.236797
0.274075
0.283853
0.272625
0.253921
0.257107
0.280769
0.279456
0.292373
0.305958
0.289039
0.280144
0.299023
0.314220
0.291126
0.308946
0.307435
0.270537
0.279945
0.263893
0.300057
0.309359
0.306321
0.281530
0.306235
0.251053
0.298971
0.312901
0.285929
0.273668
0.279576
0.285413
0.275946
0.250646
0.252447
0.243093
0.254170
0.268187
0.244339
0.234486
0.228945
0.013018
-0.008233
0.004452
-0.007276
0.023813
0.006022
0.017002
0.003253
-0.008471
-0.016332
0.011775
0.009786
0.016881
0.030059
0.040867
0.024796
0.033197
0.070032
0.048142
0.089150
0.064576
0.046438
0.077611
0.106317
0.131038
0.096878
0.137899
0.128433
0.152696
0.132953
0.132535
0.147283
0.171907
0.141686
0.146294
0.152148
0.131450
0.128502
0.099450
0.090352
0.086014
0.081573
0.078250
0.095787
0.085490
0.070893
0.062843
0.054334
0.046464
0.037501
0.035576
0.028161
0.041943
0.015379
-0.007785
0.022003
-0.008272
0.008769
-0.003648
0.010902
0.010382
-0.029243
-0.063367
-0.034818
-0.034481
-0.052252
-0.036148
-0.046177
0.002989
0.054825
0.105493
0.167250
0.296977
0.414773
0.502172
0.649984
0.752953
0.861441
0.932962
0.939901
0.965962
0.927378
0.855775
0.763248
0.623682
0.463795
0.319619
0.192406
0.088065
0.010811
-0.084886
-0.122919
-0.144761
-0.117573
-0.129633
-0.131939
-0.067545
-0.043149
-0.017133
-0.020182
0.004997
0.044957
0.050861
0.050662
0.082914
0.056779
0.074183
0.099925
0.090997
0.114062
0.089165
0.094551
0.120417
0.119677
0.130849
0.134107
0.126575
0.168640
0.133249
0.146261
0.152809
0.143304
0.150005
0.160432
0.162026
0.166474
0.188456
0.184123
0.190594
0.219074
0.228706
0.234188
0.228803
0.253615
0.231811
0.272310
0.238027
0.275336
0.255505
0.251239
0.248832
0.277633
0.292247
0.274384
0.269420
0.279593
0.279942
0.296639
0.264474
0.299465
0.307521
0.289996
0.299250
0.300639
0.297418
0.311912
0.300433
0.286409
0.294659
0.303514
0.297746
0.313527
0.293910
0.296369
0.277813
0.294264
0.296933
0.296670
0.278002
0.276722
0.281057
0.274128
0.268994
0.288379
0.242428
0.285154
0.238630
0.249803
0.208981
0.220548
0.243146
0.023584
-0.006346
-0.026860
0.000866
-0.018595
0.018860
-0.003484
-0.008786
-0.002045
-0.011172
0.015595
0.037940
0.029530
0.025060
0.034296
0.038434
0.045037
0.050491
0.046324
0.057518
0.050104
0.089322
0.080382
0.115643
0.095584
0.119321
0.159639
0.135265
0.151508
0.143787
0.155538
0.151022
0.150046
0.162191
0.138003
0.149061
0.108342
0.118598
0.136431
0.127928
0.114589
0.116505
0.094607
0.084592
0.045402
0.084892
0.045483
0.056765
0.033707
0.040416
0.023928
0.004099
0.019828
0.000554
0.034615
0.000527
0.027903
-0.014356
-0.030528
-0.010993
-0.027578
-0.002036
-0.050096
-0.039694
-0.031677
-0.054036
-0.030886
-0.030246
-0.008066
0.038156
0.075664
0.182726
0.261586
0.429927
0.500338
0.621957
0.717472
0.844808
0.927151
0.957863
0.943690
0.922392
0.814737
0.704016
0.575089
0.449496
0.317142
0.200136
0.089844
-0.000196
-0.069276
-0.130681
-0.161068
-0.152744
-0.144767
-0.110617
-0.086226
-0.054907
-0.025130
-0.000310
-0.000411
0.063342
0.062948
0.088367
0.064806
0.087606
0.087959
0.055599
0.083007
0.124826
0.097269
0.086270
0.097972
0.124261
0.123771
0.127952
0.129240
0.152406
0.117619
0.143553
0.150912
0.172376
0.173753
0.180759
0.131080
0.183125
0.187430
0.163324
0.224073
0.202330
0.192505
0.196755
0.216291
0.214481
0.230924
0.262857
0.238666
0.283755
0.253754
0.270299
0.259510
0.281174
0.302782
0.253744
0.272695
0.280593
0.289681
0.310421
0.306418
0.300378
0.301889
0.287290
0.303946
0.295143
0.306177
0.298651
0.326218
0.279872
0.301433
0.308418
0.295420
0.281671
0.275505
0.290996
0.311160
0.271512
0.323896
0.269013
0.258097
0.279386
0.273755
0.238094
0.278772
0.280852
0.253909
0.243496
0.258118
0.241560
0.224793
0.240358
0.228629
-0.008361
0.014740
-0.021843
-0.013873
-0.003483
0.011441
0.020756
0.008459
-0.014508
0.011666
0.042458
0.028363
0.005201
0.031583
0.043585
0.054702
0.065854
0.050108
0.037516
0.044288
0.084689
0.076813
0.072839
0.096556
0.092465
0.103159
0.121497
0.155501
0.127039
0.165226
0.162206
0.145896
0.159053
0.123085
0.139790
0.157302
0.145134
0.153671
0.119150
0.103886
0.107349
0.081447
0.085810
0.079080
0.075255
0.062373
0.104501
0.041104
0.027993
0.046412
0.040226
0.027134
0.010460
0.006705
0.004343
0.008890
0.009519
0.022395
0.004448
-0.024007
-0.013671
-0.042779
-0.034939
-0.038310
-0.037977
-0.028371
-0.050113
-0.011753
0.012986
0.049817
0.090685
0.186097
0.296470
0.356800
0.498810
0.650237
0.725713
0.844106
0.919968
0.982519
0.957882
0.953827
0.859368
0.749683
0.615321
0.456064
0.341958
0.213736
0.088661
0.002003
-0.074018
-0.093700
-0.127330
-0.131554
-0.106229
-0.093465
-0.097565
-0.066532
0.001767
0.009914
0.026686
0.007200
0.050040
0.079563
0.081407
0.073997
0.094092
0.086069
0.077030
0.126108
0.106332
0.101213
0.080171
0.103720
0.145563
0.140053
0.150523
0.131122
0.149415
0.162258
0.152795
0.176422
0.169853
0.183196
0.191663
0.165607
0.192234
0.177388
0.191898
0.217848
0.204374
0.221591
0.232974
0.250143
0.214397
0.227796
0.253951
0.259179
0.244240
0.235871
0.267468
0.268999
0.271796
0.286028
0.293113
0.269773
0.283746
0.300466
0.297093
0.286356
0.277652
0.285878
0.294821
0.301108
0.284619
0.287621
0.322360
0.262681
0.295572
0.307782
0.292440
0.293830
0.254595
0.285600
0.267916
0.278223
0.304211
0.272747
0.267001
0.269465
0.280283
0.277427
0.279341
0.260353
0.243506
0.263904
0.228630
0.238127
0.210221
0.222602
0.218481
0.001157
-0.024268
-0.010126
-0.018324
-0.020565
0.011183
0.002617
0.002842
-0.004396
0.006729
0.016083
0.019813
0.025255
0.000327
0.028588
0.036476
0.051362
0.065718
0.056262
0.067743
0.087575
0.096848
0.081917
0.087137
0.109466
0.118809
0.120161
0.119259
0.118770
0.148598
0.133891
0.140145
0.140760
0.155147
0.147198
0.164085
0.124196
0.125938
0.128987
0.137857
0.119251
0.097463
0.093000
0.071125
0.070962
0.033722
0.051176
0.041051
0.025867
0.041765
0.026053
0.022800
0.011984
0.031839
0.003074
0.017977
-0.002388
-0.000871
0.007597
0.001860
-0.000646
-0.041996
-0.025399
-0.030431
-0.058908
-0.065546
0.003398
-0.022973
0.019745
0.046398
0.092722
0.141426
0.272165
0.377144
0.497222
0.641367
0.753284
0.855876
0.912676
0.988225
0.958150
0.912606
0.853518
0.747303
0.648076
0.479998
0.312728
0.203993
0.087945
-0.013418
-0.058086
-0.099713
-0.153790
-0.122310
-0.123228
-0.107466
-0.064190
-0.048953
-0.033598
-0.025883
0.011027
0.047781
0.026830
0.077673
0.053622
0.093265
0.059861
0.076058
0.085261
0.091213
0.092180
0.086286
0.124879
0.118638
0.151295
0.117977
0.132033
0.140264
0.156517
0.119733
0.144192
0.162189
0.164404
0.144446
0.196142
0.163150
0.188946
0.184961
0.195809
0.184538
0.212403
0.214793
0.218353
0.247936
0.239388
0.256846
0.236289
0.242652
0.233826
0.282193
0.269672
0.240693
0.292079
0.280086
0.306746
0.255279
0.238081
0.300804
0.295938
0.289367
0.309871
0.307421
0.280963
0.302487
0.330835
0.315138
0.286844
0.306030
0.339414
0.291390
0.300079
0.297373
0.301072
0.309276
0.308775
0.293680
0.303191
0.276015
0.276201
0.282356
0.284306
0.277030
0.263509
0.258416
0.261321
0.230428
0.257436
0.246291
0.232715
0.247238
0.231037
0.017460
-0.008560
-0.027180
0.028452
0.009879
-0.039278
-0.009345
-0.001978
0.022424
0.004461
0.013044
0.011675
0.028931
0.019885
0.038160
0.040900
0.017146
0.052001
0.090113
0.052614
0.071097
0.077785
0.068802
0.096811
0.123404
0.112740
0.138558
0.133185
0.138691
0.148614
0.166914
0.159108
0.148981
0.184442
0.130850
0.123317
0.128491
0.114921
0.145974
0.094284
0.102811
0.108092
0.094801
0.091080
0.071941
0.041080
0.104328
0.038598
0.019588
0.039009
0.034648
0.005519
0.034327
-0.009822
0.011782
0.022212
0.012808
-0.003921
-0.006156
-0.006489
-0.032069
-0.064345
-0.013494
-0.034314
-0.012856
-0.077692
-0.044246
-0.027513
0.008808
0.031550
0.112831
0.175582
0.268238
0.409668
0.497360
0.627357
0.783664
0.868184
0.934340
0.992366
0.976927
0.926618
0.846288
0.729840
0.622406
0.481050
0.341260
0.171758
0.079907
0.003943
-0.047827
-0.108476
-0.106550
-0.141257
-0.119025
-0.125537
-0.060317
-0.058090
-0.036970
-0.012644
0.018228
0.047934
0.052574
0.031380
0.095076
0.063193
0.057886
0.102269
0.100717
0.087538
0.100239
0.104722
0.136649
0.101515
0.122847
0.107348
0.132067
0.137814
0.165601
0.136124
0.186619
0.157680
0.166145
0.179585
0.177937
0.188702
0.185172
0.209390
0.204136
0.216579
0.211075
0.210717
0.236936
0.226852
0.242414
0.264572
0.237142
0.244268
0.246421
0.280504
0.256451
0.254664
0.290595
0.278250
0.244050
0.250234
0.252244
0.314949
0.319525
0.265393
0.291218
0.319801
0.298751
0.269395
0.315507
0.292563
0.300448
0.290062
0.305801
0.297989
0.292177
0.300542
0.327374
0.276531
0.298809
0.287691
0.307810
0.303562
0.284541
0.283643
0.266557
0.266153
0.277195
0.269208
0.234498
0.250310
0.243302
0.264513
0.210005
0.215178
0.237509
0.012238
0.017862
0.027463
-0.017142
0.000901
-0.003358
0.012433
0.028497
-0.012145
0.000169
0.011937
0.019900
0.007481
0.039435
0.022379
0.065664
0.036321
0.017664
0.054666
0.050965
0.058489
0.092975
0.122880
0.113338
0.101628
0.122462
0.097243
0.132852
0.154122
0.167010
0.131597
0.150895
0.144174
0.148395
0.141822
0.133021
0.144413
0.146837
0.121357
0.102771
0.108067
0.109330
0.115239
0.094827
0.062764
0.072601
0.078889
0.039401
0.031966
0.057021
0.026201
0.019434
0.030605
0.009959
0.009355
0.006034
0.015096
-0.001583
-0.009696
-0.006927
-0.006468
-0.041336
-0.038016
-0.035693
-0.041305
-0.038444
-0.033492
-0.032232
-0.019627
0.028501
0.091233
0.164044
0.290874
0.394509
0.519653
0.623773
0.751913
0.835136
0.906979
0.957226
0.972093
0.908132
0.818317
0.728313
0.604248
0.493843
0.310931
0.225919
0.083238
-0.016111
-0.069768
-0.080348
-0.136198
-0.157427
-0.137497
-0.128214
-0.052987
-0.066924
-0.037163
0.009713
-0.001378
0.036889
0.075912
0.049882
0.077352
0.076317
0.062100
0.056692
0.082131
0.094865
0.089252
0.110350
0.138080
0.123835
0.113949
0.108591
0.141490
0.118572
0.162049
0.155218
0.171550
0.162554
0.161651
0.178116
0.175430
0.208309
0.196644
0.210916
0.179698
0.226443
0.209507
0.238752
0.202821
0.232774
0.228872
0.259777
0.258365
0.274324
0.250762
0.267032
0.252983
0.240923
0.276080
0.275808
0.262875
0.297920
0.287787
0.291606
0.291667
0.279909
0.306965
0.288619
0.310262
0.302009
0.291319
0.314764
0.309949
0.306602
0.274709
0.278135
0.265022
0.314559
0.302435
0.299860
0.279382
0.298374
0.302482
0.292668
0.286738
0.275906
0.269953
0.259620
0.258225
0.281401
0.241620
0.278145
0.257279
0.242830
0.242581
0.218529
0.228794
-0.000668
0.025333
-0.001362
0.009716
-0.002984
-0.012109
0.015539
0.001860
0.015776
0.019286
0.008587
0.028413
0.040164
0.032558
0.019554
0.030465
0.054762
0.036525
0.065614
0.056027
0.087909
0.086248
0.111586
0.111604
0.096875
0.098785
0.120772
0.160079
0.145151
0.110985
0.161983
0.174969
0.131113
0.156971
0.162230
0.149921
0.131496
0.109269
0.151339
0.111008
0.092033
0.093926
0.096877
0.060908
0.075802
0.063511
0.066511
0.026681
0.025982
0.064356
0.066302
0.035364
-0.010784
0.023943
0.021413
-0.002091
-0.000303
-0.009489
0.004658
-0.039145
-0.020006
-0.004971
-0.039741
-0.039215
-0.065481
-0.051728
-0.059819
-0.025273
0.004083
0.057907
0.087710
0.164098
0.258650
0.381421
0.522382
0.633020
0.733855
0.815413
0.941309
0.932326
0.981541
0.939820
0.847454
0.762335
0.621783
0.493100
0.343059
0.195612
0.086887
-0.018885
-0.073065
-0.110522
-0.141586
-0.143043
-0.106181
-0.118715
-0.059257
-0.060802
-0.046258
-0.003272
0.030925
0.034418
0.048564
0.054498
0.078986
0.041517
0.101892
0.088980
0.107825
0.106008
0.128466
0.119779
0.139611
0.102636
0.112868
0.119652
0.155305
0.144237
0.136963
0.133373
0.139572
0.162310
0.166683
0.161510
0.186662
0.185803
0.199108
0.186995
0.214357
0.228551
0.223405
0.217641
0.225245
0.250543
0.239242
0.251466
0.271602
0.264930
0.258275
0.272602
0.256410
0.283083
0.270540
0.264579
0.289612
0.281322
0.276706
0.292909
0.301230
0.281354
0.314093
0.296542
0.293181
0.283719
0.291089
0.290162
0.289105
0.274235
0.344143
0.304354
0.317146
0.311520
0.291523
0.281805
0.303872
0.256645
0.278784
0.268966
0.272833
0.293464
0.290014
0.273711
0.253426
0.252712
0.271222
0.261164
0.248551
0.229520
0.230404
0.217021
0.226573
-0.009061
0.008596
0.009349
-0.003899
0.042014
0.027987
0.012787
0.035689
0.014887
-0.009005
0.016840
0.032473
0.014481
0.015485
0.041323
0.046689
0.025794
0.046360
0.063812
0.080260
0.081927
0.078942
0.093863
0.118050
0.097563
0.119961
0.142248
0.122239
0.135569
0.136264
0.156085
0.124247
0.129016
0.166922
0.155758
0.148443
0.134685
0.135545
0.120644
0.102605
0.107433
0.123330
0.091669
0.073750
0.089702
0.038211
0.057503
0.058567
0.034772
0.041914
0.021564
-0.016185
0.009924
0.013671
-0.003944
0.007840
-0.008728
-0.013201
-0.000165
-0.009393
-0.020657
-0.011619
-0.025154
-0.047455
-0.063172
-0.034694
-0.011924
-0.030385
0.035880
0.032845
0.108885
0.174547
0.267013
0.385134
0.519623
0.640991
0.755986
0.840039
0.917817
0.975628
0.935960
0.925740
0.847490
0.755431
0.609427
0.461158
0.351197
0.200207
0.082313
-0.010996
-0.050507
-0.086436
-0.138182
-0.162649
-0.152466
-0.120460
-0.069010
-0.035881
-0.007924
-0.012037
0.019585
0.033963
0.069216
0.067308
0.077680
0.053861
0.067621
0.087586
0.060899
0.112231
0.103192
0.108647
0.099020
0.093422
0.126150
0.149530
0.118883
0.137307
0.139120
0.153803
0.147329
0.177737
0.162729
0.169341
0.164342
0.170219
0.191058
0.199678
0.207591
0.202535
0.192141
0.229465
0.236045
0.246852
0.222265
0.214522
0.263309
0.254942
0.273527
0.249249
0.263489
0.275635
0.265184
0.279392
0.273908
0.290637
0.270682
0.289265
0.301119
0.311479
0.285283
0.290788
0.306443
0.295107
0.303626
0.326795
0.290862
0.316762
0.305314
0.288061
0.286179
0.305539
0.270433
0.288169
0.292174
0.311787
0.304296
0.260931
0.278364
0.275521
0.275937
0.247728
0.267570
0.276596
0.244846
0.264032
0.255030
0.229075
0.201686
0.206857
0.228540
-0.001463
0.000663
-0.002583
0.016275
-0.002993
-0.006278
0.002812
0.012546
0.008044
-0.018303
0.019940
-0.012299
0.024458
0.044647
0.021369
0.036461
0.054776
0.057906
0.027552
0.081970
0.079353
0.079685
0.089364
0.099217
0.098435
0.099782
0.136193
0.134041
0.130261
0.133999
0.156895
0.143284
0.160444
0.161708
0.143670
0.178376
0.164433
0.138679
0.091106
0.146244
0.102550
0.098457
0.086330
0.089448
0.073775
0.090142
0.072413
0.048779
0.064200
0.014794
0.035475
0.011821
0.028633
0.013041
0.017740
0.020462
0.010620
0.024238
-0.009499
-0.003751
-0.005895
-0.013308
-0.030891
-0.025462
-0.020346
-0.057348
-0.048024
-0.029458
0.001848
0.016739
0.100131
0.179959
0.266915
0.385294
0.498262
0.618963
0.779670
0.858109
0.948763
0.955989
0.980419
0.916127
0.842209
0.741552
0.625392
0.449825
0.338126
0.200901
0.113439
-0.012643
-0.078234
-0.099520
-0.149843
-0.127039
-0.122030
-0.107836
-0.095676
-0.062533
-0.046579
0.003063
0.012970
0.066499
0.028630
0.059259
0.065007
0.093446
0.079570
0.084077
0.072668
0.090015
0.115503
0.111458
0.123912
0.122431
0.121119
0.125146
0.136888
0.148648
0.161188
0.155010
0.134882
0.173325
0.153822
0.175392
0.161037
0.159263
0.211936
0.208236
0.210754
0.192143
0.190329
0.207681
0.237583
0.223556
0.242605
0.240460
0.266177
0.245139
0.271674
0.248022
0.259228
0.243653
0.244106
0.246598
0.262982
0.275969
0.286817
0.293988
0.300550
0.310330
0.282657
0.283845
0.288016
0.309446
0.296577
0.307270
0.307970
0.288295
0.304027
0.308131
0.306134
0.272678
0.299043
0.296478
0.298249
0.292374
0.281035
0.267554
0.301721
0.284289
0.266101
0.303031
0.278063
0.268029
0.271995
0.254022
0.247855
0.203886
0.248445
0.257667
0.231636
-0.015960
0.002702
0.005814
-0.012378
0.024427
0.000278
0.011914
0.005600
0.009583
0.014865
-0.003960
0.011287
0.006738
0.019042
0.009640
0.040730
0.063256
0.057396
0.038961
0.054185
0.064714
0.069114
0.123440
0.120903
0.110463
0.116421
0.138617
0.137974
0.142179
0.135452
0.126194
0.140687
0.156690
0.163185
0.159219
0.120951
0.153725
0.126537
0.124082
0.090701
0.075250
0.086583
0.068366
0.069976
0.075603
0.035153
0.064296
0.075510
0.009577
0.022095
0.020166
0.030460
-0.012289
0.014208
-0.010755
0.006217
-0.001339
0.009077
-0.005656
-0.006332
-0.032004
-0.021035
-0.047623
-0.040571
-0.062520
-0.021977
-0.046383
-0.027796
0.005301
0.051060
0.111085
0.174362
0.290610
0.377335
0.503813
0.628596
0.733602
0.819790
0.952179
0.962142
0.974456
0.929463
0.875016
0.742344
0.611034
0.480407
0.317249
0.210336
0.099278
-0.017855
-0.069544
-0.122238
-0.135734
-0.142023
-0.123430
-0.107740
-0.068317
-0.049575
-0.056772
-0.004109
-0.000221
0.015373
0.050116
0.043295
0.057388
0.074579
0.075112
0.087825
0.099203
0.102892
0.100204
0.142986
0.101945
0.105636
0.114085
0.113481
0.147631
0.115739
0.157103
0.155089
0.159513
0.167101
0.167786
0.200124
0.173260
0.203139
0.179587
0.175527
0.220932
0.196419
0.226288
0.221590
0.241160
0.239877
0.245316
0.237328
0.251020
0.249071
0.255047
0.254130
0.272208
0.236522
0.253665
0.289284
0.282275
0.307582
0.290056
0.304542
0.293460
0.308567
0.297989
0.306288
0.312957
0.292396
0.295259
0.299644
0.294584
0.280754
0.293433
0.298883
0.302059
0.321317
0.321629
0.291198
0.271526
0.271929
0.286115
0.281905
0.296116
0.276691
0.278156
0.260129
0.263877
0.238039
0.259127
0.273305
0.250161
0.249706
0.238633
0.250848
0.224504
0.019906
0.011264
-0.002654
0.010610
0.013601
0.013443
-0.014469
-0.018914
0.001988
0.022057
0.028602
0.038797
0.031470
0.018853
0.015098
0.040062
0.032230
0.051820
0.075023
0.069370
0.074563
0.052179
0.101819
0.125171
0.070328
0.129141
0.119561
0.140741
0.135027
0.142141
0.148557
0.139556
0.134231
0.134137
0.141797
0.134992
0.128044
0.122690
0.138361
0.102892
0.089355
0.100005
0.075799
0.065259
0.073076
0.040078
0.042302
0.044768
0.027585
0.044691
0.038548
0.005429
0.042840
-0.009449
0.013735
0.017517
-0.000617
0.006774
0.013332
-0.013978
-0.005033
-0.024974
-0.040850
-0.051307
-0.016287
-0.048707
-0.027777
-0.035987
-0.009761
0.044953
0.082750
0.171433
0.280465
0.391467
0.503276
0.640186
0.752953
0.861704
0.930450
0.974959
0.942147
0.923630
0.845276
0.768101
0.619569
0.452850
0.349545
0.191896
0.064097
-0.010268
-0.066235
-0.108530
-0.141448
-0.134127
-0.123972
-0.109869
-0.099646
-0.074000
-0.025243
0.002283
0.028561
0.033417
0.054883
0.075377
0.098542
0.067757
0.094253
0.093361
0.136540
0.078252
0.085707
0.127975
0.127804
0.095766
0.126631
0.128919
0.125231
0.135254
0.145355
0.150143
0.139948
0.165801
0.186780
0.168432
0.187938
0.192795
0.192293
0.222273
0.177621
0.202656
0.235400
0.222480
0.206720
0.211697
0.254660
0.234644
0.225886
0.235226
0.256998
0.241361
0.261478
0.250030
0.263100
0.252826
0.258466
0.278934
0.314118
0.285119
0.309815
0.300549
0.250957
0.299904
0.284589
0.301599
0.268671
0.321942
0.318287
0.307077
0.292119
0.313680
0.294968
0.317980
0.252706
0.295660
0.277956
0.296819
0.272003
0.270768
0.250558
0.283245
0.277737
0.266174
0.233096
0.250985
0.250209
0.216857
0.262821
0.252438
0.223970
0.243836
0.272353
0.033558
-0.005473
-0.014188
-0.010865
0.005411
-0.002731
0.005513
0.035337
0.008114
0.025610
0.016426
0.021409
0.020905
0.022816
0.016302
0.038644
0.039987
0.052377
0.085059
0.046820
0.086919
0.079786
0.137150
0.076802
0.101731
0.102959
0.111944
0.129178
0.128971
0.139671
0.174187
0.145192
0.126974
0.135305
0.126215
0.134498
0.124535
0.130482
0.122146
0.155338
0.125022
0.098924
0.060335
0.076314
0.081558
0.048615
0.060279
0.019060
0.047985
0.024508
0.025521
0.003843
0.019444
0.044080
0.012613
-0.019318
-0.018470
-0.005400
-0.006932
-0.035114
-0.019606
-0.013210
-0.032715
-0.047546
-0.063242
-0.056922
-0.053749
-0.023009
-0.005312
0.058694
0.081766
0.149576
0.271872
0.396745
0.537218
0.637531
0.758161
0.835560
0.930000
0.953833
0.938925
0.899453
0.840928
0.724951
0.608088
0.477937
0.355878
0.213832
0.116964
-0.001156
-0.048264
-0.110083
-0.116738
-0.142985
-0.115894
-0.089989
-0.050786
-0.079164
-0.025115
-0.007710
0.015381
-0.010613
0.018612
0.070413
0.059735
0.066781
0.065405
0.113957
0.059495
0.099204
0.119125
0.087979
0.116318
0.127617
0.140449
0.130428
0.132520
0.151983
0.157438
0.153765
0.150200
0.167024
0.164248
0.190339
0.153610
0.196425
0.205572
0.218791
0.197829
0.226547
0.216753
0.217619
0.225986
0.265624
0.221756
0.238808
0.242114
0.261253
0.242231
0.257251
0.235763
0.254713
0.262965
0.291733
0.294028
0.271201
0.289642
0.274812
0.304076
0.275035
0.298885
0.302642
0.303992
0.284828
0.294347
0.291082
0.313510
0.301017
0.266876
0.312345
0.289067
0.291867
0.297917
0.289776
0.296356
0.311081
0.273068
0.285812
0.277346
0.288635
0.278392
0.263332
0.248295
0.280716
0.267298
0.268749
0.245657
0.233298
0.264271
0.219643
0.227471
0.010231
-0.003518
0.014529
-0.019542
0.025031
-0.009425
-0.009562
0.004881
-0.001325
0.023869
0.031811
0.005899
-0.000087
0.024253
0.044129
0.040582
0.018383
0.047258
0.062163
0.063798
0.076337
0.098562
0.093516
0.090793
0.091002
0.118636
0.114337
0.116773
0.145131
0.174454
0.140909
0.155606
0.143096
0.160643
0.150834
0.146102
0.110004
0.139589
0.149513
0.128253
0.121467
0.089758
0.080450
0.098548
0.077231
0.070809
0.056066
0.039042
0.054452
0.003468
0.030074
0.036406
0.023629
-0.020914
0.009023
0.015722
-0.014764
-0.015944
-0.004238
-0.013394
-0.009082
-0.042011
-0.023821
-0.040601
-0.048238
-0.063965
-0.036677
-0.020480
-0.002414
0.047234
0.123381
0.166024
0.262112
0.406310
0.501055
0.638436
0.726650
0.852728
0.919380
0.980527
0.959997
0.914645
0.832327
0.733870
0.594374
0.482717
0.355661
0.200303
0.079542
0.014555
-0.040803
-0.113954
-0.118167
-0.152816
-0.124054
-0.118308
-0.083691
-0.071887
-0.027029
0.023819
0.018789
0.046795
0.059742
0.060320
0.054780
0.068649
0.083802
0.115751
0.075905
0.085201
0.118274
0.117516
0.111006
0.111341
