-0.001451
-0.019629
0.024505
0.003908
-0.001069
-0.003657
-0.005616
-0.014222
0.022125
0.030041
0.025246
0.039823
0.000226
0.026473
0.046189
0.037638
0.012677
0.057474
0.065964
0.079456
0.065573
0.090308
0.094711
0.081447
0.075481
0.136238
0.133322
0.130915
0.149580
0.148517
0.143971
0.159947
0.145400
0.144513
0.154436
0.134715
0.144562
0.107173
0.123945
0.096038
0.131371
0.120830
0.074422
0.080643
0.084001
0.052188
0.047431
0.048959
0.049738
0.044827
0.009004
0.029599
0.032292
0.032430
0.030422
0.004915
0.001160
0.004773
0.004598
-0.014547
-0.042173
-0.023770
-0.013578
-0.031919
-0.040387
-0.059492
-0.060115
-0.036449
-0.013618
0.026832
0.108986
0.151398
0.233421
0.352168
0.508918
0.637312
0.726052
0.842033
0.917243
0.977719
0.951739
0.949831
0.859329
0.786033
0.678406
0.502595
0.349210
0.217813
0.129804
0.027644
-0.066999
-0.080439
-0.136595
-0.106592
-0.151293
-0.107897
-0.079178
-0.031159
-0.024753
0.006048
0.008510
0.042363
0.020986
0.050589
0.073820
0.062844
0.074308
0.077813
0.083910
0.100672
0.079445
0.090318
0.109841
0.111907
0.131184
0.129790
0.128470
0.103978
0.157727
0.152396
0.126837
0.149702
0.153488
0.175347
0.175660
0.199155
0.188142
0.188205
0.180001
0.212690
0.229420
0.209619
0.247856
0.222866
0.226389
0.247426
0.263279
0.241050
0.244810
0.250252
0.267325
0.259750
0.260874
0.263079
0.279351
0.274372
0.269068
0.270261
0.278109
0.285959
0.283358
0.311050
0.282059
0.305869
0.311155
0.270481
0.287250
0.292160
0.324501
0.301939
0.294604
0.286295
0.312354
0.278532
0.290208
0.310463
0.293170
0.301189
0.288897
0.282745
0.267375
0.241958
0.271344
0.265758
0.241551
0.271705
0.246522
0.234834
0.252253
0.210204
0.256699
0.232571
0.231426
0.232584
0.227398
0.201726
0.218505
0.192670
0.201458
0.181115
0.163851
0.160848
0.175373
0.128665
0.165597
0.147103
0.139551
0.164958
0.169223
0.109942
0.141288
0.143610
0.098800
0.139582
0.125783
0.104799
0.107545
0.083470
0.109768
0.070715
0.078571
0.077562
0.089461
0.080871
0.069236
0.041003
0.054876
0.073869
0.071751
0.035811
0.050740
0.011510
0.042592
0.049718
0.030085
0.027797
0.033040
0.034550
0.033861
0.028417
0.012479
0.026868
0.029156
0.009958
0.006727
0.033606
0.022947
-0.003177
0.008248
0.025106
0.016634
0.006444
0.027774
0.018825
0.013891
-0.021838
0.007231
0.002200
-0.002047
0.005263
0.012124
-0.018918
-0.009621
0.011965
0.019955
0.009286
-0.026503
-0.017664
-0.003415
-0.028035
0.014769
-0.009970
-0.004062
0.030666
-0.004138
-0.011682
0.011523
0.029587
-0.005930
0.006339
0.002748
0.001744
-0.012162
0.000157
-0.013385
0.006170
0.001268
0.000814
0.007171
0.014813
0.005260
-0.012360
-0.003134
-0.003477
-0.008041
0.015501
-0.007525
0.002047
0.029468
-0.010354
0.000883
0.021151
0.014639
0.000609
0.024286
0.021917
-0.001164
-0.002920
-0.000819
0.013613
-0.015806
0.006000
0.027871
0.007963
-0.000809
0.002862
0.012101
0.007700
-0.016924
-0.013554
0.005841
-0.017541
-0.022094
-0.002974
0.014189
0.012606
-0.012256
0.008318
-0.007529
0.006328
-0.007872
-0.003389
-0.009219
-0.002698
0.013106
-0.027497
-0.025674
0.024848
-0.000362
-0.007791
0.008618
-0.006788
0.000689
0.009842
-0.019643
-0.010181
0.010407
-0.016059
-0.018899
-0.003442
0.015072
-0.001194
-0.003813
-0.006852
0.005412
-0.029535
0.010664
0.002338
-0.023607
-0.007250
0.004485
0.003736
-0.003458
0.005477
-0.004935
0.019324
-0.009197
0.023620
0.021307
0.007055
0.004798
0.007047
-0.014435
-0.013804
0.004429
-0.021933
-0.002833
0.011084
-0.005004
-0.006646
0.006436
0.006208
0.024159
-0.001828
0.008379
-0.002995
-0.013513
0.031801
0.004727
0.010007
-0.010688
0.017278
0.000733
0.000167
-0.025133
-0.011434
-0.000266
-0.016360
0.025139
0.031639
0.021492
0.003474
-0.013982
-0.014421
-0.017260
0.006171
0.002617
0.014299
-0.008629
-0.014605
-0.021214
0.001550
-0.000968
-0.002865
0.008438
0.006119
-0.011612
-0.020734
-0.010614
-0.020637
0.005125
-0.008286
0.005559
0.005992
0.007602
-0.016668
-0.009611
0.003681
-0.027150
-0.004004
0.024250
-0.007817
-0.019183
-0.010402
-0.012672
-0.002973
0.002373
0.022872
0.003475
-0.007240
-0.013264
0.019309
0.013816
0.005419
0.018843
0.003862
0.006288
0.013539
0.000282
0.045994
-0.018141
0.027972
-0.001994
0.002449
-0.002307
0.002577
0.003805
0.027445
-0.004270
0.007613
0.010712
0.009049
-0.014307
0.010525
-0.025041
-0.042551
-0.009545
0.022691
-0.008119
0.002714
0.010459
0.007898
0.010217
0.015917
0.011542
-0.002861
-0.001875
0.026229
-0.008518
0.010764
0.004737
0.022882
0.016261
-0.012164
-0.003403
0.009921
-0.020120
0.009747
-0.016302
0.012555
-0.005197
0.010702
-0.005501
0.013615
0.008876
-0.026049
-0.026991
-0.008908
-0.006354
-0.012273
0.003594
-0.008946
-0.003253
-0.013245
-0.039549
0.027762
0.023669
0.008930
-0.010040
0.002391
0.003679
-0.008243
-0.018499
0.003671
0.014479
-0.002569
0.002565
0.000614
-0.009536
0.006115
-0.007662
0.018700
-0.010499
0.013298
-0.006091
-0.009279
-0.012207
0.000377
-0.008424
-0.009746
-0.000231
-0.020478
-0.013352
-0.022558
0.013860
-0.011507
-0.003058
-0.020886
-0.002566
-0.016625
0.006459
0.021974
-0.001596
0.044065
0.034739
0.029954
0.042949
0.074673
0.039419
0.078212
0.079695
0.098413
0.096208
0.088909
0.081345
0.083528
0.100970
0.134498
0.142039
0.144254
0.148032
0.144879
0.154522
0.174180
0.166367
0.151432
0.125026
0.155515
0.148421
0.124572
0.127545
0.103080
0.075770
0.106708
0.101032
0.079749
0.046370
0.026648
0.057443
0.061049
0.021756
0.024384
0.030311
0.024633
0.036925
0.002124
0.011032
-0.006350
0.007687
0.008161
-0.002321
-0.053157
0.005430
-0.032362
-0.056931
-0.057203
-0.019464
-0.039289
-0.020808
-0.011321
0.043594
0.069760
0.181439
0.237612
0.384497
0.508942
0.604442
0.716690
0.847365
0.917453
0.957923
0.997663
0.935062
0.855596
0.789009
0.645304
0.511858
0.371921
0.219668
0.132263
0.014037
-0.036927
-0.095980
-0.128497
-0.126748
-0.113019
-0.103258
-0.081950
-0.064653
-0.022312
-0.005877
-0.007462
0.013231
0.031332
0.060511
0.059649
0.083172
0.065340
0.080059
0.087117
0.088457
0.098919
0.100294
0.123599
0.104509
0.106775
0.145029
0.126018
0.133090
0.145671
0.157384
0.133737
0.173474
0.193172
0.181040
0.169454
0.205492
0.190161
0.185178
0.203533
0.226236
0.216626
0.217039
0.239578
0.228442
0.231550
0.211679
0.233925
0.246880
0.261204
0.252517
0.271647
0.247129
0.281288
0.290477
0.286409
0.269266
0.273852
0.268639
0.315305
0.305255
0.310001
0.296056
0.277762
0.282446
0.306033
0.290330
0.291732
0.285404
0.300240
0.301539
0.299359
0.306710
0.292828
0.290790
0.274290
0.267660
0.312567
0.302840
0.296397
0.302009
0.289162
0.276786
0.260825
0.272241
0.288087
0.284593
0.264987
0.232114
0.242725
0.237366
0.211541
0.217144
0.216697
0.227732
0.192574
0.202952
0.205579
0.192982
0.202106
0.153828
0.145208
0.160858
0.154525
0.164644
0.168811
0.146576
0.146321
0.142528
0.124632
0.134092
0.119611
0.105268
0.103337
0.125749
0.088743
0.088341
0.096906
0.085022
0.056644
0.066378
0.064145
0.092555
0.075062
0.055067
0.040866
0.052381
0.071285
0.054164
0.043697
0.034668
0.060336
0.054542
0.045107
0.055601
0.024401
0.053536
0.037830
0.035365
0.021362
0.021462
0.018218
0.003722
0.016049
0.021521
0.061260
0.019386
0.002477
0.028212
-0.012754
-0.011284
0.013925
0.033467
-0.008284
0.004009
0.010409
0.016730
0.003496
-0.000840
-0.001067
0.009504
-0.002764
0.016769
0.023251
-0.009092
0.022826
0.023923
0.003249
0.015343
-0.006785
-0.026416
0.018602
-0.008591
-0.016526
-0.000328
0.010261
-0.006142
0.016866
0.001703
0.016805
-0.026620
0.015382
0.001573
0.023640
0.005108
0.000318
-0.007026
0.001274
-0.009703
-0.003877
-0.004122
0.001017
-0.009479
0.003149
-0.030674
0.001097
-0.003534
0.006795
-0.016981
-0.030151
-0.012075
-0.024963
-0.006871
0.004118
-0.018754
-0.001731
-0.011243
0.014320
-0.004942
0.020433
-0.004310
-0.006391
0.011237
-0.013962
0.021267
0.010407
-0.008060
0.005167
0.020725
0.010866
-0.002615
-0.021058
-0.001610
0.021700
0.011170
-0.012695
0.011059
-0.012188
0.019984
0.010579
-0.001275
-0.006863
0.013267
0.006998
0.018261
0.008973
0.014284
0.013127
-0.004151
0.003489
-0.016783
-0.006656
-0.015784
-0.005674
-0.007179
-0.013633
-0.011268
0.018593
-0.008514
0.000693
0.000651
-0.002908
0.021372
-0.008318
-0.038178
-0.017509
0.000540
0.007196
-0.016086
0.022286
0.012759
-0.016189
0.015856
-0.000847
-0.003578
-0.003705
0.026515
-0.016285
0.010075
-0.019563
-0.004559
-0.017326
0.012842
0.023728
0.010948
0.014689
-0.017550
-0.006737
-0.001181
0.000133
0.011874
-0.001647
-0.007805
-0.001166
-0.022375
0.015263
0.010287
-0.001073
-0.015216
-0.010068
-0.023183
0.014114
-0.016129
0.004609
-0.002248
0.002844
-0.007402
0.022631
-0.011258
0.006502
0.013424
-0.012493
-0.002273
0.012129
0.002691
0.016358
-0.006049
-0.007564
-0.022363
0.014315
0.016340
0.020864
-0.010646
0.001567
0.008210
0.014915
0.000713
0.002673
-0.023632
0.007394
0.000266
-0.001777
0.009745
-0.011864
0.021251
-0.001353
0.040079
0.011927
-0.008290
0.015425
0.018117
0.022177
-0.005900
-0.020298
-0.003350
-0.034184
0.032286
-0.014021
0.005776
0.013378
-0.001694
-0.010568
-0.012071
-0.014325
-0.003670
0.010972
0.003432
0.010051
0.019428
-0.020243
0.023206
-0.003822
-0.006910
0.004568
-0.016154
-0.001601
-0.010655
-0.008930
-0.011570
0.007084
-0.001911
0.012390
0.019628
0.015886
-0.012313
0.003960
-0.010540
-0.016535
-0.000901
0.015031
0.020658
-0.018219
-0.014638
0.000177
0.016512
0.027008
0.013484
-0.004982
-0.022151
-0.010954
0.011456
0.033974
0.017974
-0.002995
-0.007593
0.006669
0.015979
-0.004673
0.009232
0.006980
-0.014779
-0.027128
-0.017164
-0.002466
0.010719
0.000839
0.018350
0.001790
-0.026349
0.001528
-0.014666
0.003593
0.006807
-0.000991
-0.006994
0.013373
-0.001425
-0.018136
-0.014112
0.008197
0.015184
0.013168
0.007796
-0.011355
-0.040304
-0.005477
0.030442
0.000147
-0.001912
0.014168
-0.015834
0.005378
0.003762
-0.005355
0.002879
0.010604
-0.010865
0.012699
0.004631
0.000237
0.029088
0.007453
0.008928
0.000960
-0.027020
0.010917
0.015128
-0.031648
0.011969
0.015750
-0.004871
0.023219
0.009476
0.002348
-0.001947
0.016533
0.024692
0.060585
0.012461
0.048312
0.068927
0.066922
0.083886
0.051452
0.115211
0.110540
0.115066
0.106013
0.127468
0.145645
0.137564
0.156222
0.144344
0.154839
0.142356
0.173992
0.166498
0.138496
0.148939
0.124435
0.107839
0.103146
0.095880
0.104336
0.079225
0.095991
0.056796
0.062867
0.059658
0.032084
0.018330
0.028968
0.040533
0.009097
0.058860
0.009275
0.017247
-0.024117
-0.003617
0.018536
-0.014628
0.006349
-0.028740
-0.029506
-0.046856
0.002457
-0.046801
-0.030823
-0.036228
-0.026591
-0.013987
0.004948
0.082252
0.155268
0.254149
0.367763
0.490792
0.621122
0.695049
0.809484
0.904548
0.954687
0.968636
0.915880
0.909043
0.792814
0.597260
0.516586
0.375134
0.204116
0.128194
0.040013
-0.068170
-0.100341
-0.095722
-0.131843
-0.132839
-0.106577
-0.088521
-0.056897
-0.055752
-0.027665
0.024927
0.036990
0.018558
0.067698
0.076885
0.052882
0.102547
0.109742
0.074861
0.108509
0.100517
0.088413
0.131490
0.107588
0.128217
0.141840
0.122365
0.104724
0.187757
0.156125
0.160240
0.178641
0.148066
0.169214
0.167074
0.186541
0.200837
0.197248
0.199661
0.218614
0.183699
0.207591
0.227663
0.211395
0.218177
0.249794
0.258755
0.236020
0.245110
0.238077
0.237224
0.255296
0.289291
0.295052
0.260726
0.277496
0.303763
0.277874
0.315677
0.310857
0.297720
0.289091
0.267968
0.293326
0.295396
0.277699
0.302171
0.264990
0.321719
0.298387
0.314626
0.303049
0.305510
0.282904
0.293699
0.278166
0.276170
0.288123
0.307394
0.260350
0.282717
0.289311
0.269355
0.274600
0.260709
0.267436
0.255688
0.253685
0.264447
0.267473
0.230851
0.232990
0.186656
0.203127
0.242463
0.216079
0.191441
0.206275
0.201240
0.161458
0.177750
0.185325
0.157362
0.155423
0.155411
0.144265
0.118223
0.147875
0.137644
0.111297
0.130292
0.121368
0.120634
0.135398
0.103290
0.092930
0.097193
0.068535
0.085121
0.065621
0.077112
0.071218
0.085307
0.064563
0.068863
0.056928
0.045945
0.061704
0.040433
0.045301
0.072311
0.031492
0.053666
0.040334
0.033522
0.015844
0.043732
0.047622
0.014608
0.042977
0.010718
-0.009021
0.024668
0.018173
0.031928
0.005992
0.015255
0.010765
0.020919
-0.008667
0.017445
0.006782
0.023424
0.018019
0.002950
0.025050
0.007229
0.008824
0.017323
-0.008503
0.020961
-0.014665
0.021551
0.011071
-0.014307
0.003349
-0.001267
-0.016496
-0.019745
0.001505
0.022747
0.000248
-0.015077
0.002253
-0.004090
-0.007206
0.000760
0.028289
-0.020401
0.004803
-0.003808
-0.007465
-0.011631
-0.011643
0.000453
0.019583
-0.026796
0.009377
-0.004209
-0.011101
0.013604
-0.013717
-0.014771
-0.011578
0.009812
0.001030
-0.006161
0.009420
-0.005386
-0.002215
-0.012433
-0.006666
0.014710
-0.008390
-0.022785
-0.011715
0.003284
-0.002027
0.003060
-0.014527
0.027455
-0.005275
-0.002586
0.004298
-0.020195
0.006987
0.012005
0.002553
0.014901
0.011363
-0.001381
0.001319
0.004917
0.003881
0.000723
0.001298
-0.023212
-0.007425
0.004537
0.006807
0.001019
0.013071
-0.029085
-0.019867
-0.025126
-0.006235
-0.009760
-0.000646
0.000182
0.007586
0.007154
0.004118
0.005933
0.021320
0.004256
-0.004348
0.020854
-0.018980
0.014955
0.011642
0.023743
-0.028381
0.010160
-0.008490
-0.007563
-0.012747
-0.003080
-0.002241
-0.014373
0.009625
-0.013516
0.011997
0.003597
-0.011930
-0.022080
0.008188
-0.023903
-0.020065
-0.012402
-0.001847
-0.000929
-0.015453
-0.003967
-0.021924
0.012849
0.004013
-0.017320
0.012330
0.006780
-0.005718
-0.001799
-0.012721
0.017835
-0.011029
0.013121
-0.020187
-0.006367
-0.010067
0.007655
-0.002123
-0.005893
0.003173
-0.017341
-0.023205
-0.019418
0.019772
-0.019130
-0.025674
0.012139
-0.025048
-0.024174
0.010487
0.001939
0.013051
0.012303
-0.003481
-0.015855
0.005603
0.013932
-0.030969
-0.016063
-0.024099
0.015674
-0.011753
-0.005493
-0.011109
0.007904
-0.001281
-0.027558
-0.014012
-0.000572
-0.004516
-0.012331
0.010803
0.000595
-0.006313
-0.014266
-0.026265
-0.007428
-0.035890
-0.021920
0.013454
-0.015145
0.010043
-0.014951
-0.025081
0.015315
0.020615
0.020466
0.010567
-0.010971
0.006201
0.000307
0.000507
0.014538
-0.002180
0.016657
-0.006169
-0.005917
-0.002124
-0.008937
-0.000487
-0.003538
0.010469
-0.009625
0.006819
0.002182
0.004417
-0.011103
-0.026682
-0.005361
-0.004732
0.018953
-0.004974
-0.013909
-0.005373
-0.002212
0.011545
-0.005092
0.007492
0.012908
0.001444
-0.009567
-0.018909
-0.007380
0.027379
-0.007367
0.031307
0.006320
0.022140
-0.009516
-0.022544
0.002391
-0.026379
-0.025728
0.002732
0.002698
-0.031981
0.012055
0.002247
0.011969
0.003157
0.019302
0.006560
0.023732
0.011056
-0.018548
0.005884
0.011566
-0.015052
-0.003031
-0.015075
0.018689
0.022737
0.010010
-0.000754
0.006563
0.018412
-0.013528
0.031087
0.007201
-0.007465
0.018174
0.026718
-0.000257
0.001849
-0.005928
0.014535
-0.010395
-0.012990
0.000538
0.027069
-0.001673
-0.001531
-0.007644
-0.000072
-0.022618
-0.010899
-0.005570
0.000337
-0.004639
0.004728
-0.037559
-0.014649
0.016981
0.010263
0.015465
-0.014130
0.003842
-0.013630
-0.001239
0.020272
0.015962
0.016741
0.038427
0.013206
0.027484
0.061021
0.061275
0.050440
0.074793
0.076400
0.067788
0.084429
0.122075
0.093819
0.127254
0.120336
0.138982
0.133344
0.131253
0.173647
0.133382
0.154543
0.133709
0.152247
0.145563
0.157265
0.148985
0.146630
0.117606
0.112394
0.056618
0.098344
0.078812
0.046521
0.051782
0.063431
0.044650
0.071884
0.047570
0.016377
0.025391
0.020452
0.007767
0.008225
0.013539
-0.003980
0.000399
-0.019563
-0.003783
-0.019506
-0.022263
-0.033370
-0.012342
-0.054504
-0.065637
-0.044260
-0.049382
-0.016582
0.028991
0.094592
0.204228
0.237845
0.377916
0.493435
0.621532
0.721690
0.826112
0.885179
0.949677
0.942901
0.947186
0.833114
0.761999
0.637845
0.510821
0.386100
0.237736
0.098629
0.022384
-0.050320
-0.114692
-0.128641
-0.118284
-0.120023
-0.118711
-0.087582
-0.073732
-0.027264
-0.011973
0.027325
0.015721
0.032588
0.059351
0.066203
0.059741
0.084777
0.068125
0.085552
0.118666
0.098385
0.104625
0.112024
0.117687
0.120805
0.128546
0.133204
0.141055
0.146622
0.155717
0.146488
0.170883
0.170772
0.182130
0.173205
0.194137
0.171077
0.186911
0.187686
0.204114
0.214353
0.203589
0.229181
0.215397
0.237799
0.241942
0.259612
0.234448
0.266259
0.234387
0.265007
0.263408
0.274104
0.282268
0.280973
0.314866
0.293664
0.295051
0.290108
0.261311
0.301675
0.264448
0.285580
0.305577
0.286811
0.297350
0.284062
0.302642
0.291857
0.301840
0.310728
0.292309
0.300810
0.274047
0.313293
0.285413
0.297484
0.287912
0.300423
0.300382
0.246275
0.276517
0.254130
0.253923
0.255891
0.261956
0.274716
0.242681
0.235894
0.232649
0.239274
0.234387
0.226263
0.222860
0.202375
0.202612
0.187026
0.181193
0.182888
0.193200
0.200693
0.169934
0.149217
0.164928
0.162611
0.178615
0.138784
0.145893
0.104898
0.120947
0.130586
0.144126
0.113229
0.087950
0.097830
0.082001
0.089716
0.057622
0.066492
0.072811
0.079208
0.084309
0.087437
0.075014
0.061160
0.069144
0.054977
0.055489
0.065837
0.070305
0.040554
0.046731
0.043636
0.015737
0.044390
0.036540
0.033974
0.022256
0.029024
0.048961
0.006973
0.041109
0.007277
0.025135
0.000290
-0.006074
0.034955
-0.013685
0.003872
0.027738
0.018207
0.031131
0.015066
0.015897
-0.000634
-0.001271
0.007544
-0.009542
-0.014347
-0.003589
0.007311
0.016754
-0.001152
0.013561
-0.007910
0.014586
0.014834
0.010157
-0.004364
0.007501
-0.005000
-0.026207
0.002213
-0.004339
-0.011833
0.008986
-0.001522
-0.013091
-0.003056
0.016890
-0.002768
-0.015657
0.013100
-0.009934
-0.024569
0.018070
-0.002068
0.010238
0.004152
-0.011997
0.006722
-0.007285
-0.020191
-0.008874
0.025927
-0.010316
0.014095
-0.012301
0.012462
0.010855
0.035556
0.003385
0.007152
0.004548
0.009322
-0.008957
-0.007691
-0.043220
0.022842
-0.011940
0.009527
0.011058
0.001178
0.001195
-0.003413
0.011568
-0.045996
0.012298
-0.005075
-0.017621
-0.011461
0.010339
-0.012133
-0.002682
0.013288
-0.002222
0.014771
-0.010491
-0.007410
0.025159
0.011400
0.019681
-0.021008
-0.014716
-0.022398
-0.023940
-0.000062
0.008234
0.021739
0.017859
0.018398
-0.000482
-0.004174
0.020649
-0.026655
0.005731
-0.005589
-0.021154
0.007218
-0.004137
0.001586
-0.015533
-0.011183
-0.007791
0.012038
0.011564
0.003280
0.010007
-0.006618
0.014760
0.003452
-0.006626
-0.013431
0.012321
-0.003745
0.001801
0.014486
0.033437
0.016033
-0.005682
-0.001405
-0.003785
-0.021182
0.016101
0.001321
-0.003251
0.015592
0.004565
-0.000884
0.022013
0.004642
0.004186
0.011404
-0.003579
-0.016275
0.006974
-0.006770
-0.010718
-0.024726
0.010118
0.021536
-0.011022
-0.012341
0.012775
-0.009009
0.010355
0.023240
-0.001302
-0.014204
-0.030653
0.005439
0.003272
0.000340
-0.004173
-0.004812
-0.024233
-0.007245
0.005857
-0.000336
-0.011516
-0.022016
-0.012328
0.023490
-0.015697
-0.010056
0.003631
0.005278
-0.028258
0.013957
-0.026793
-0.018636
0.003772
0.004294
0.027053
-0.004916
0.014258
0.012975
0.012205
0.046481
0.011489
-0.005118
0.005823
-0.008706
0.003532
-0.005383
-0.000248
0.026771
-0.013467
-0.004274
0.007077
-0.007031
-0.018320
0.034606
-0.009466
-0.009832
0.007977
0.011449
0.010690
0.006864
-0.001758
-0.005314
0.003547
-0.002616
-0.001481
-0.008487
0.020842
0.005687
-0.006941
-0.024752
0.000460
0.003446
-0.009085
0.001935
0.028230
0.012935
0.009309
0.020918
-0.005227
0.005972
0.019613
-0.004967
0.023734
-0.001784
-0.000940
0.000459
0.001513
-0.000907
-0.012733
0.006283
0.026924
-0.009373
-0.018728
-0.004226
0.001587
-0.004002
-0.003125
-0.019259
-0.018556
-0.009306
0.021221
0.018975
0.014673
0.010807
-0.018317
0.001522
0.008278
-0.039332
0.015339
0.003847
-0.000961
-0.012200
0.023365
-0.010514
0.012296
0.006246
0.009590
-0.011128
0.004922
-0.012964
0.004228
0.003686
-0.016140
-0.000754
0.007338
0.006544
-0.004195
-0.004182
0.014921
0.015549
0.021332
-0.009232
0.014846
0.013097
-0.003977
0.024323
-0.000452
-0.007211
0.016601
0.012041
-0.013959
0.010696
-0.017791
0.004681
0.011923
-0.001373
0.015459
-0.000119
-0.034113
0.017840
0.033119
-0.000612
0.010733
0.018106
0.036046
0.005096
0.054208
0.036028
0.026949
0.055868
0.061342
0.072001
0.087221
0.108749
0.080986
0.121906
0.114917
0.140428
0.130334
0.115650
0.123649
0.146278
0.151008
0.139570
0.147525
0.146544
0.103987
0.150974
0.129238
0.132367
0.115609
0.104208
0.087983
0.116216
0.070277
0.077295
0.070057
0.071636
0.025014
0.058029
0.014632
0.007507
0.046760
0.043310
0.010454
0.027402
-0.003023
0.003261
0.015971
0.009708
0.014395
-0.016459
-0.008333
-0.027746
-0.013638
-0.026444
-0.057838
-0.050255
-0.031124
-0.040658
0.013829
0.020629
0.069910
0.147157
0.280640
0.380282
0.498873
0.575839
0.687569
0.829846
0.920371
0.978448
0.986860
0.915750
0.858788
0.767068
0.643648
0.505923
0.355964
0.227927
0.133175
0.035552
-0.044117
-0.089605
-0.127929
-0.136309
-0.103930
-0.114268
-0.085405
-0.036983
-0.051665
-0.002626
0.004976
0.023252
0.057010
0.070083
0.069331
0.081889
0.086467
0.091292
0.101088
0.103191
0.096270
0.111510
0.124126
0.151640
0.127159
0.132820
0.113829
0.119315
0.139343
0.123585
0.151967
0.157568
0.155858
0.175074
0.162700
0.171931
0.188554
0.176819
0.188018
0.207850
0.158371
0.199724
0.223458
0.240018
0.225614
0.245503
0.248904
0.243107
0.256407
0.246699
0.274998
0.242460
0.260520
0.272177
0.271775
0.287607
0.275115
0.272209
0.265012
0.319691
0.303183
0.281342
0.295539
0.329222
0.301931
0.305257
0.311611
0.303890
0.303177
0.288979
0.292662
0.293147
0.295006
0.305755
0.295859
0.283016
0.269047
0.285598
0.300229
0.260209
0.284268
0.284077
0.264483
0.259576
0.276446
0.252616
0.248622
0.247059
0.262069
0.216302
0.233910
0.231026
0.212243
0.196968
0.227246
0.192883
0.216388
0.231300
0.208933
0.206690
0.176789
0.182313
0.181576
0.182051
0.139234
0.177376
0.127280
0.155335
0.156203
0.133158
0.104407
0.099329
0.118349
0.106173
0.087892
0.107957
0.111059
0.114265
0.072049
0.093698
0.059957
0.077430
0.082749
0.063176
0.060484
0.048572
0.061169
0.066036
0.037925
0.030293
0.029710
0.063187
0.037143
0.027511
0.040277
0.033488
0.035894
0.025785
0.031343
0.030652
0.065921
-0.002740
0.009829
0.048664
0.006528
0.010132
0.009907
-0.005330
0.020423
0.006439
0.019364
0.020153
0.042968
0.017257
-0.009792
-0.003964
-0.005008
0.001944
-0.001693
-0.000238
0.005647
0.026782
-0.008314
-0.006749
-0.008077
0.015280
-0.011680
-0.015804
0.011134
-0.016308
-0.003346
-0.012132
-0.008786
0.016991
-0.017564
0.014196
0.039858
0.001888
0.004792
-0.002723
0.009469
-0.000843
-0.001105
-0.012496
-0.010518
0.012406
-0.007027
-0.001695
-0.016160
0.025511
-0.001432
-0.004878
0.001930
0.023817
-0.008948
0.004196
-0.007325
0.001845
-0.003991
-0.001744
-0.008718
0.017705
-0.012523
-0.015637
0.012468
-0.006183
0.002847
-0.001760
0.010028
-0.006691
0.002084
-0.004870
0.006966
-0.010612
0.001263
-0.000819
-0.006425
-0.031570
-0.001143
0.015733
-0.011506
0.037146
0.001312
0.003065
-0.012556
0.000893
-0.020472
0.002108
-0.000693
-0.009765
0.016337
-0.004866
-0.000017
-0.013833
0.011328
0.020716
0.023489
-0.009112
0.021729
0.037412
-0.004870
-0.001211
0.015841
-0.022998
-0.012240
0.003423
0.016312
-0.001844
-0.015391
0.005893
0.002283
0.016067
-0.001166
-0.007056
0.000032
-0.007795
-0.033165
0.014255
0.011617
0.011675
0.025899
-0.030397
-0.015343
-0.006387
0.000992
-0.011516
-0.004500
-0.003544
0.003277
0.019674
-0.004293
-0.003400
0.011910
-0.006001
-0.008433
-0.012240
0.000042
0.005577
0.015930
0.026431
-0.008374
-0.024295
-0.018034
0.009058
0.006593
0.005318
0.010651
-0.005132
-0.008267
0.021565
-0.027920
-0.014089
0.000325
-0.011818
0.015161
-0.013605
0.000860
-0.007557
0.007849
-0.000164
0.005760
0.011119
-0.004355
-0.019018
-0.005521
-0.023157
0.002716
0.002576
0.017588
0.007990
-0.014815
0.009744
0.022509
0.021373
-0.015638
-0.022372
-0.030532
-0.010033
0.017728
0.004443
-0.016209
-0.017330
-0.018134
-0.006350
0.011824
-0.002431
0.026654
0.008094
0.006722
0.003753
0.002766
0.002371
0.008240
-0.026253
-0.004783
-0.009937
0.033261
-0.008209
0.011734
0.003503
0.027851
0.013985
0.006911
-0.004997
-0.022951
0.000832
-0.008123
0.001709
0.000617
0.001382
-0.007844
-0.004600
-0.004036
-0.002313
-0.016962
-0.012223
-0.007339
0.022490
-0.022771
0.012851
0.008657
-0.009616
-0.004796
0.023733
-0.008903
0.005629
0.001342
-0.015747
-0.034065
-0.009030
-0.024346
-0.007258
0.015991
-0.004580
-0.011004
0.004826
0.016607
0.013097
-0.007089
-0.031981
-0.003533
0.002307
0.016320
0.011656
0.005317
-0.005890
0.032056
-0.002121
-0.015143
-0.007947
0.017783
-0.004193
-0.005488
0.034065
-0.001984
-0.000944
-0.017640
-0.011175
0.018854
-0.014053
0.004854
0.010941
-0.011336
-0.019662
-0.016254
-0.010445
0.001536
0.010321
0.001998
-0.006690
-0.007269
0.008339
0.020024
0.004532
0.004342
0.002169
0.011225
0.012965
-0.019425
0.002818
0.004056
-0.013897
0.021504
0.016882
-0.024361
0.001145
-0.005933
-0.006726
-0.007697
-0.008375
-0.019006
0.019916
0.000707
-0.008603
0.017141
-0.006020
0.026120
-0.006050
-0.004418
0.001260
0.013856
0.001010
0.012816
0.042014
0.037153
0.035689
0.030229
0.061753
0.041036
0.049794
0.054516
0.073379
0.091929
0.080932
0.100806
0.113042
0.115731
0.127642
0.121927
0.160226
0.181746
0.137919
0.129767
0.160469
0.161233
0.150722
0.128220
0.137133
0.151204
0.101262
0.157837
0.101874
0.101509
0.093027
0.073387
0.053676
0.080080
0.055209
0.033057
0.061519
0.043092
0.041081
0.030609
0.019998
0.011942
0.021384
0.005534
-0.018314
-0.010827
0.011764
-0.016383
-0.017011
-0.029824
-0.053153
-0.035157
-0.025560
-0.073282
-0.060275
-0.044382
-0.011584
0.033158
0.078188
0.149403
0.258818
0.377692
0.489968
0.624132
0.728813
0.810628
0.906141
0.965793
0.964091
0.922091
0.872344
0.763560
0.642194
0.526423
0.371172
0.252596
0.102499
0.013883
-0.056109
-0.099633
-0.129665
-0.134760
-0.137703
-0.106311
-0.066766
-0.062030
-0.062855
0.005239
0.026460
0.012336
0.076714
0.049289
0.063484
0.079286
0.075461
0.079294
0.107120
0.096469
0.098603
0.094856
0.110414
0.119084
0.110522
0.130517
0.135023
0.121198
0.170133
0.130183
0.169084
0.167669
0.160044
0.136592
0.168278
0.184633
0.195718
0.221550
0.214618
0.210235
0.231457
0.226797
0.206127
0.266666
0.215136
0.217776
0.232462
0.246565
0.240041
0.264576
0.260427
0.266063
0.273286
0.254951
0.263156
0.277263
0.275075
0.304589
0.311660
0.297378
0.258730
0.297400
0.287777
0.311293
0.297240
0.285411
0.286042
0.312762
0.306684
0.287500
0.306657
0.329519
0.280449
0.335498
0.297838
0.298505
0.265448
0.283322
0.276197
0.275578
0.271736
0.264300
0.247154
0.271236
0.259570
0.275596
0.235971
0.249651
0.263637
0.227197
0.222194
0.222129
0.206203
0.223310
0.216262
0.206120
0.180684
0.208773
0.176903
0.183238
0.156421
0.179196
0.171256
0.164275
0.153110
0.142291
0.156978
0.147369
0.089519
0.120125
0.130756
0.107581
0.075858
0.124729
0.077929
0.115666
0.085063
0.095992
0.106695
0.076676
0.056233
0.078003
0.079450
0.093643
0.050408
0.072637
0.047497
0.064498
0.041163
0.039732
0.034340
0.046582
0.040989
0.031133
0.016828
0.034798
0.028136
0.027120
0.017793
-0.000607
0.039635
0.000077
-0.007164
0.009634
0.012043
0.047579
0.017332
-0.027001
0.001351
-0.001476
0.006770
-0.005123
-0.012479
0.000468
0.018059
0.012016
0.001702
0.008783
0.004190
0.013373
0.018467
-0.012889
-0.002891
0.030576
0.001312
0.007395
0.019902
0.003380
0.012882
0.012660
-0.011009
0.002069
-0.000910
0.007715
0.005179
-0.015360
-0.008731
-0.010816
-0.006932
-0.006623
-0.030616
-0.004163
-0.002377
0.004874
-0.001935
-0.007207
-0.017860
-0.005651
-0.006648
-0.016818
0.025312
-0.004397
0.013889
0.024827
0.006895
-0.013233
0.003000
-0.005051
0.011319
0.006994
-0.016890
-0.000128
-0.000783
0.032649
0.005879
0.005727
0.004102
0.014237
-0.019145
0.002002
-0.006287
0.017166
-0.005840
0.002652
-0.012382
0.000121
-0.029158
-0.014083
0.019810
-0.017955
0.015833
0.006218
-0.002780
-0.016780
0.002615
0.021577
-0.000105
0.004580
-0.024618
-0.023974
0.015867
0.012508
-0.009108
0.018493
0.014886
-0.022587
0.010507
0.019263
0.006204
-0.021638
-0.008852
0.011520
0.022076
-0.006472
-0.000365
0.001791
0.005592
-0.015455
-0.001602
0.023238
0.005556
-0.036248
-0.001463
0.015374
0.015344
0.008369
-0.009180
0.023565
-0.016725
-0.001025
0.002694
0.004468
-0.008030
0.002827
0.020776
0.020971
0.014220
-0.017510
-0.026853
0.026603
0.026097
-0.041208
-0.021756
0.023724
0.005568
0.021778
-0.010982
0.010772
0.008595
0.004288
-0.007630
0.012928
0.012123
-0.016864
-0.005690
0.008591
0.024873
-0.007842
0.021056
0.021432
0.020778
0.011068
-0.004446
0.009999
0.015928
-0.013706
0.018207
-0.012672
-0.003398
0.000826
-0.013041
0.006505
0.005439
-0.008817
-0.014054
0.016244
-0.014930
-0.012695
0.009055
0.010655
-0.022447
-0.001245
-0.012308
0.000651
-0.002310
0.036673
0.015735
0.004238
-0.015634
-0.023447
-0.001383
0.000316
-0.027373
0.024729
0.013833
-0.033217
-0.014433
0.004717
-0.014584
0.028264
0.016680
0.004654
-0.010201
0.009363
0.005940
-0.002443
-0.014749
-0.010797
0.001172
-0.021856
0.017996
-0.009026
0.002134
0.004750
-0.001702
0.006832
0.005229
-0.005017
-0.025828
-0.003274
-0.008029
0.027660
0.011193
-0.001069
-0.023148
0.030642
-0.007630
0.001676
0.026736
-0.029122
0.014458
0.008547
-0.008539
-0.001131
-0.019193
-0.004634
-0.024488
-0.008042
-0.008834
0.005486
0.018735
-0.000201
0.007187
-0.015943
0.014197
-0.006820
0.001571
0.013214
0.003091
-0.033198
0.015151
0.018451
-0.015297
-0.013453
-0.012226
-0.007255
0.013726
-0.014154
-0.003352
-0.029805
-0.031910
0.018252
-0.009008
-0.002799
0.027305
0.019978
-0.001510
-0.019627
-0.006716
-0.000141
-0.009855
0.024534
-0.018921
-0.009154
-0.007217
-0.002710
-0.004222
0.027689
-0.024989
0.007149
-0.005801
-0.012587
-0.023632
0.029961
-0.050498
-0.015222
0.008162
-0.010072
0.006317
-0.007307
0.004476
0.001645
-0.015268
-0.020539
0.014160
-0.031345
0.006524
0.004954
0.004009
-0.025672
-0.006044
0.011303
-0.004558
0.021205
-0.021311
0.019219
0.024481
0.027511
0.013637
-0.001505
0.000742
0.039390
0.042230
0.013986
0.001823
0.047409
0.029693
0.041230
0.071051
0.104114
0.085181
0.090210
0.100837
0.088316
0.098028
0.125246
0.104449
0.148163
0.110141
0.163917
0.142349
0.119452
0.128149
0.159431
0.173005
0.165150
0.164781
0.128618
0.128969
0.133260
0.117982
0.125407
0.118795
0.089889
0.091731
0.084074
0.069015
0.039929
0.042728
0.002897
0.026354
0.034042
0.045802
0.019552
0.005054
0.009884
0.022702
0.028862
0.008675
0.020115
-0.011937
-0.032077
-0.009276
-0.063421
-0.039479
-0.038305
-0.053090
-0.038023
0.000230
-0.014039
0.000921
0.055619
0.166364
0.286211
0.349798
0.454739
0.608338
0.732752
0.811852
0.910547
0.948158
0.956787
0.954208
0.858205
0.756771
0.648803
0.495621
0.377127
0.215285
0.141796
0.044035
-0.062476
-0.112516
-0.108928
-0.115109
-0.134756
-0.126473
-0.086234
-0.104001
-0.039639
0.000665
0.008116
0.041250
0.026917
0.062137
0.073443
0.045619
0.092487
0.100850
0.100471
0.083249
0.105052
0.089644
0.105704
0.118071
0.101430
0.120253
0.122974
0.120521
0.144001
0.153506
0.151775
0.159015
0.122812
0.162142
0.173565
0.182112
0.180855
0.185346
0.194445
0.201350
0.206820
0.207661
0.223509
0.243793
0.214499
0.230949
0.239380
0.211102
0.260309
0.252143
0.244002
0.257413
0.289468
0.288244
0.306663
0.277946
0.292133
0.256823
0.261392
0.278241
0.281661
0.281665
0.302228
0.295043
0.315223
0.319134
0.280809
0.273481
0.326592
0.291816
0.297500
0.279049
0.294953
0.265135
0.272203
0.285096
0.289177
0.275428
0.267049
0.284233
0.258677
0.257748
0.262749
0.248184
0.256551
0.254259
0.229454
0.233326
0.241586
0.208060
0.242423
0.219089
0.203440
0.240954
0.204121
0.191455
0.187575
0.191774
0.198373
0.188144
0.195895
0.149645
0.149927
0.163782
0.153213
0.150000
0.170993
0.157559
0.157615
0.132397
0.115132
0.110116
0.107114
0.109242
0.113903
0.083946
0.115597
0.061484
0.069222
0.081504
0.089068
0.062943
0.073267
0.061268
0.038842
0.069988
0.068488
0.048859
0.043446
0.066014
0.042616
0.056885
0.033039
0.042333
0.036003
0.042718
0.023126
0.052032
0.023915
0.018535
0.014608
0.032401
0.035425
0.036061
0.018625
-0.008883
0.009778
0.035789
0.001535
0.021054
0.001587
0.003916
0.021142
0.024808
-0.015876
-0.009245
0.015996
-0.006316
-0.013629
0.025793
0.026486
0.004420
0.009326
0.001414
-0.000905
0.004698
0.000242
-0.010578
0.028774
-0.010737
-0.000402
-0.006329
-0.003468
-0.019783
-0.013039
-0.020196
0.000450
-0.000459
0.025589
-0.014747
0.015582
0.006929
0.005204
0.013854
-0.012941
-0.006039
0.008007
-0.004651
-0.004861
0.003029
0.012486
-0.035064
0.023754
-0.023450
0.007603
0.000083
0.005972
0.001915
0.015681
-0.031396
-0.013288
-0.009327
0.000750
-0.021462
0.022712
-0.022223
-0.017082
0.004213
-0.001307
0.005571
-0.002960
0.005079
0.000970
-0.002080
0.020462
0.009365
0.021131
-0.000965
-0.017550
-0.006570
-0.016408
-0.018464
-0.003377
-0.029793
-0.009597
0.011644
0.021899
-0.004501
-0.004052
0.021552
-0.001147
-0.002096
0.003365
0.003714
-0.016482
-0.017524
0.001799
-0.002003
-0.016517
-0.001096
0.029392
-0.001091
0.008223
-0.010136
-0.003926
0.002800
-0.000723
0.015797
-0.005516
-0.024810
0.006536
0.005227
0.006770
0.004360
0.003022
-0.006028
0.012779
0.007163
0.022422
0.002055
0.000789
-0.011204
-0.011706
-0.020130
0.003494
-0.011205
-0.006194
-0.001724
0.002784
-0.007347
-0.008848
-0.001669
0.006763
-0.010093
0.012647
-0.005245
-0.002600
0.012311
-0.009708
-0.007618
0.005926
0.002217
-0.010269
-0.022541
-0.001689
0.010119
0.002965
-0.006207
0.006083
-0.022725
0.004679
-0.005549
0.006282
-0.001760
-0.017474
-0.010732
-0.035445
-0.019299
-0.009458
-0.005122
0.029676
0.013651
-0.021446
-0.004730
-0.012028
-0.004657
0.000034
-0.008613
-0.008852
0.007628
-0.000318
0.003765
-0.008484
-0.010865
0.004596
0.007068
0.008858
-0.002788
0.020942
0.005539
-0.020891
0.010583
0.028074
0.023361
-0.003382
0.001116
-0.000845
0.019343
-0.033359
-0.001217
0.000585
-0.006935
-0.006630
-0.011158
-0.017609
0.003735
0.021649
0.029651
-0.018908
-0.019980
0.003046
-0.015981
-0.022052
0.008630
-0.002451
0.005685
-0.013400
0.007616
-0.008939
0.003257
-0.011078
0.002237
0.017327
-0.009109
0.001774
0.003701
0.007163
0.003015
0.000940
-0.001532
-0.020534
0.008394
-0.006091
-0.005950
-0.007588
0.014219
-0.005660
0.000844
-0.001267
-0.015658
-0.011682
-0.041082
-0.022775
-0.005694
-0.030513
-0.003384
0.007094
0.026423
0.003824
0.000846
-0.006603
0.008026
0.007445
0.007130
-0.001211
0.010574
0.012838
0.008025
0.003405
0.032951
0.001786
-0.015747
0.009004
-0.002699
0.015904
-0.006074
-0.003819
-0.012069
-0.000894
0.010976
0.001506
0.006758
-0.000448
-0.017660
0.008287
-0.012041
-0.036475
-0.027517
-0.004262
-0.003824
-0.003991
0.003401
-0.013072
0.027392
-0.010577
0.009965
0.001242
-0.006261
-0.022245
-0.002054
-0.015807
0.034575
0.008353
-0.000150
-0.000688
-0.022406
0.004834
0.023282
-0.003972
-0.005838
-0.022403
0.002113
0.002398
0.005719
0.000677
0.006674
0.006610
-0.010480
0.004410
0.016279
0.003996
0.028679
0.023828
0.026029
0.037497
0.013273
0.032502
0.055521
0.037583
0.051766
0.097540
0.081179
0.088291
0.096546
0.104350
0.106379
0.111395
0.128332
0.125664
0.141975
0.122043
0.150224
0.140982
0.145008
0.136017
0.158424
0.128071
0.120324
0.096200
0.138425
0.113128
0.120637
0.083983
0.088175
0.082356
0.070106
0.049449
0.070633
0.054366
0.040703
0.047611
0.014114
0.021717
0.026304
0.004929
0.012449
0.008327
0.022487
-0.004226
-0.003314
-0.004387
-0.039203
-0.028204
-0.035487
-0.031618
-0.023884
-0.048549
-0.057372
-0.024616
0.004282
0.017045
0.100811
0.163178
0.257008
0.379180
0.483901
0.586336
0.731097
0.839561
0.907215
0.970906
0.995692
0.946818
0.857154
0.749283
0.641969
0.499275
0.381506
0.256524
0.114902
0.008236
-0.035592
-0.102403
-0.106958
-0.120882
-0.140284
-0.119928
-0.084548
-0.077281
-0.046431
-0.008939
0.010498
-0.000512
0.070651
0.078102
0.056487
0.052548
0.071848
0.079448
0.093363
0.108159
0.108321
0.091164
0.098312
0.103263
0.099677
0.146148
0.122640
0.142040
0.149440
0.159461
0.161505
0.161390
0.170417
0.183112
0.183581
0.177756
0.220057
0.201597
0.216652
0.210974
0.225338
0.238162
0.233935
0.226576
0.232629
0.250249
0.267726
0.230167
0.276421
0.259554
0.258779
0.267003
0.268519
0.281596
0.278698
0.283697
0.285027
0.287225
0.291919
0.285407
0.302150
0.269518
0.279820
0.295627
0.284407
0.314067
0.294825
0.290874
0.279217
0.306632
0.293774
0.270217
0.302018
0.304955
0.282995
0.300227
0.272355
0.316737
0.302783
0.298707
0.270066
0.295442
0.252702
0.261288
0.290985
0.290545
0.256730
0.248012
0.222547
0.233038
0.256608
0.222003
0.237795
0.212065
0.200712
0.182036
0.189728
0.168022
0.182431
0.205199
0.171418
0.170167
0.204811
0.161691
0.150667
0.141807
0.137059
0.126390
0.099811
0.160305
0.154541
0.102339
0.121690
0.089809
0.099383
0.090514
0.087001
0.106577
0.105014
0.082331
0.081395
0.084544
0.079780
0.073908
0.049665
0.050974
0.056153
0.036454
0.057416
0.035719
0.046622
0.078582
0.039127
0.046665
-0.004531
-0.010295
0.032437
0.019917
0.032430
0.015136
0.033169
-0.010658
0.034795
0.000988
0.022840
0.007244
0.005657
0.008476
0.034520
-0.009371
-0.009361
0.010261
0.008271
0.000617
0.035242
-0.003535
0.014667
-0.010200
-0.015180
0.028381
0.000578
-0.021053
-0.000233
0.014903
-0.023288
0.003925
0.019109
-0.008685
0.004941
0.003728
0.004229
0.008991
-0.017539
-0.030956
0.015398
0.014529
0.019351
0.009486
0.003961
0.001613
0.001471
0.008248
-0.001457
-0.007038
-0.012364
0.026546
-0.005158
0.004501
-0.003130
0.016275
0.021159
-0.021852
-0.002992
-0.004725
0.011053
0.010676
-0.014671
0.011833
0.008956
0.017701
0.004581
0.009108
-0.011715
0.016978
0.006888
0.030339
0.006237
-0.002989
-0.003988
0.016224
-0.006340
-0.016117
-0.000964
0.026919
0.030604
0.007578
-0.003575
-0.022612
-0.003390
-0.000678
-0.003417
0.001682
0.003297
-0.004520
0.050539
0.000025
0.001461
-0.023426
-0.020956
-0.021328
0.006291
0.040119
0.026833
-0.025603
0.004008
0.022830
0.034599
-0.014372
-0.026184
0.000309
-0.003367
0.015601
-0.002129
0.021621
0.025444
-0.035397
0.012793
-0.006447
0.026452
-0.010948
0.007277
0.036652
-0.006022
-0.003158
-0.022421
0.005258
0.016311
0.018368
0.016798
0.007484
-0.010464
0.033182
-0.005388
0.003455
-0.016813
-0.011517
-0.007243
0.010406
0.010643
-0.014849
0.016044
0.015099
0.008853
0.005893
-0.001842
0.004769
0.001124
-0.005821
0.009681
-0.010633
0.013253
0.001283
-0.004538
0.001305
0.002506
-0.011962
-0.003206
-0.022432
0.011672
0.013999
0.030627
-0.000145
-0.006771
0.001827
-0.009865
0.012160
0.010535
-0.019796
-0.014061
-0.008677
0.004847
0.028895
-0.008639
0.007037
0.003463
0.005583
-0.005476
0.003045
0.015329
0.005966
-0.000080
0.009768
-0.014111
-0.002787
0.006496
0.019555
-0.007592
0.018332
-0.008113
-0.012863
0.004049
-0.011997
-0.007165
-0.031304
-0.026162
-0.017340
0.004423
0.008414
0.006914
0.031436
0.011134
-0.007768
0.017571
-0.045205
0.014872
-0.001292
-0.016390
-0.029319
-0.007845
0.017981
-0.010763
-0.022209
-0.001297
-0.009428
-0.005005
-0.032939
-0.004630
0.025654
-0.008376
-0.006624
0.006798
-0.022612
0.006911
-0.021854
-0.018023
0.011449
-0.023711
0.014626
0.036040
