-0.004560
0.007511
-0.031327
0.000616
0.001105
0.007881
0.024207
0.030490
0.022332
0.008243
0.009860
-0.021336
0.020851
0.016669
0.029020
0.008567
0.046156
0.030566
0.070959
0.084442
0.069860
0.053310
0.098946
0.090264
0.128336
0.134844
0.150688
0.143706
0.144403
0.130700
0.135307
0.159802
0.147139
0.147472
0.134512
0.169584
0.139403
0.121804
0.142483
0.103524
0.110138
0.094520
0.092851
0.090590
0.081503
0.077925
0.071422
0.044933
0.059953
0.045468
0.036789
0.034503
0.006189
0.018616
0.010375
0.027165
0.011863
0.027041
0.021373
0.000281
0.003844
-0.024966
-0.043675
-0.021911
-0.053261
-0.033307
-0.060192
-0.022494
-0.042549
0.023457
0.101370
0.168953
0.225250
0.362834
0.465182
0.603579
0.741481
0.818495
0.899580
0.939189
0.970322
0.971818
0.885887
0.768887
0.656289
0.531080
0.348954
0.265846
0.101023
0.018166
-0.034179
-0.075647
-0.112433
-0.115844
-0.125915
-0.092434
-0.110276
-0.078029
-0.009938
-0.026695
0.001941
0.008356
0.029618
0.063078
0.055370
0.096422
0.084009
0.081713
0.110816
0.092554
0.118010
0.084928
0.109259
0.116447
0.141139
0.116894
0.134199
0.124504
0.161060
0.143427
0.167673
0.153619
0.136624
0.157476
0.192689
0.194411
0.170763
0.208306
0.194463
0.172669
0.229251
0.232683
0.213385
0.210821
0.240625
0.242941
0.266689
0.249224
0.207419
0.265906
0.267378
0.281696
0.262829
0.279243
0.274230
0.278416
0.292651
0.295111
0.300681
0.283496
0.280571
0.297033
0.267516
0.298359
0.307201
0.301567
0.297903
0.305251
0.278685
0.289295
0.277773
0.302101
0.303666
0.290682
0.315923
0.276704
0.306063
0.266691
0.287455
0.272239
0.247991
0.265264
0.281761
0.255495
0.244034
0.235694
0.240913
0.234031
0.252502
0.257097
0.231479
0.244096
0.235904
0.231148
0.197044
0.197417
0.207141
0.209443
0.180524
0.194860
0.179858
0.185882
0.184129
0.159897
0.142538
0.130331
0.153909
0.152658
0.118337
0.147596
0.106629
0.135537
0.127440
0.071541
0.072820
0.102754
0.109310
0.081988
0.081039
0.097287
0.074899
0.063000
0.062480
0.050171
0.067184
0.061120
0.057075
0.023271
0.036926
0.032800
0.035070
0.037205
0.046237
0.049648
0.031233
0.056401
-0.007689
0.030959
0.011421
0.030211
0.004577
0.003015
0.033482
0.022199
0.015611
0.024296
0.052770
0.013685
0.034402
0.011297
0.001440
0.033524
0.004385
-0.014668
0.003703
0.015482
0.018746
0.027897
0.011165
0.017073
0.014012
-0.006312
-0.002428
-0.000357
-0.001002
-0.025105
-0.012620
0.012197
-0.011012
-0.005610
-0.010804
0.000879
0.007130
0.035120
0.006136
-0.014341
0.008077
0.000922
-0.009114
0.008736
-0.018379
0.009639
0.011528
0.003923
0.027381
-0.001901
-0.016487
0.007534
-0.004548
0.023641
-0.010959
0.022952
-0.017067
0.027958
-0.005710
-0.038978
-0.010216
0.025821
-0.016733
-0.023662
0.006842
-0.009804
-0.038576
-0.027713
0.024290
0.007503
0.016800
0.006039
0.012130
-0.018685
0.018516
-0.002527
0.015041
0.024872
0.014183
0.025985
0.001883
0.011918
-0.007733
-0.027805
0.019509
0.013202
0.014653
-0.013838
-0.009791
-0.001649
0.000897
-0.012023
-0.021112
-0.013522
0.021617
-0.012109
-0.000473
0.000017
-0.010769
-0.012861
-0.000647
-0.022051
-0.007714
0.029699
0.002912
-0.018536
-0.002395
0.002685
-0.006476
-0.004257
-0.001470
0.018413
-0.006959
0.009484
0.006756
-0.002185
0.017383
0.006593
0.015415
0.000296
-0.006562
-0.001063
-0.005318
0.005164
0.005504
-0.010660
0.005929
0.009476
0.003404
-0.008881
-0.010889
0.015857
0.015137
-0.007648
0.005175
-0.024915
0.002058
0.014728
0.007057
-0.004867
0.007733
-0.013680
0.014082
0.006834
-0.008016
-0.005829
0.005544
0.028464
0.019061
-0.026921
-0.012626
0.021853
0.006051
-0.005451
0.013058
-0.002322
-0.003703
-0.011585
-0.011641
0.008134
-0.008483
-0.024972
0.004676
0.002367
-0.012874
0.003655
0.008983
0.033132
-0.006494
0.022727
-0.002571
-0.008190
0.005833
-0.004075
0.028676
0.010069
0.029121
-0.016586
0.001978
-0.001761
0.007077
-0.004405
-0.012623
-0.013252
0.000066
0.003157
-0.019884
0.003891
0.020704
-0.013988
0.013702
0.024803
-0.002804
-0.016138
0.001160
-0.006550
-0.017278
-0.023182
-0.004195
-0.003011
-0.000601
0.001319
0.011759
-0.008327
0.012820
-0.018720
-0.019045
0.002492
-0.003448
0.012591
0.003923
-0.001572
0.007152
0.001854
-0.021168
0.012749
0.012897
-0.008597
0.028093
-0.021198
0.007922
0.015725
-0.016186
0.008085
-0.003260
-0.012970
0.014107
0.006793
0.023516
0.000410
-0.001325
0.014042
0.020941
-0.028048
0.025578
-0.009520
-0.015553
-0.000782
0.006586
-0.004525
0.045051
0.018596
-0.012280
-0.025370
-0.012650
0.000891
-0.023780
0.019498
-0.002309
0.018511
0.018644
0.008335
0.018776
0.011687
0.015311
0.001932
-0.034075
0.029865
0.000184
0.012505
-0.001146
0.004324
-0.000881
-0.015234
-0.030564
-0.005058
-0.005466
-0.003936
-0.006149
0.021558
0.001358
0.005835
-0.004924
0.020677
0.011493
0.002032
0.000393
0.000181
0.012380
-0.015367
0.003325
0.010546
-0.013032
-0.045800
-0.009561
0.002835
-0.001066
-0.006936
0.011370
0.008658
-0.009736
-0.002289
-0.005714
-0.012666
0.015001
0.026662
0.013701
-0.019691
0.013921
-0.015621
-0.006240
-0.033051
0.016682
0.014566
0.010000
0.005068
-0.007832
-0.006322
-0.001182
0.016374
-0.000247
-0.039342
-0.048437
0.021136
0.008876
0.022372
-0.000247
-0.027755
-0.012404
0.013283
0.007185
0.019585
-0.005775
-0.001238
-0.021908
-0.016432
0.003123
0.016318
0.015669
0.016015
-0.009182
-0.005799
-0.012940
-0.018480
0.023917
0.002270
0.005118
-0.003594
0.006207
0.002587
0.000233
-0.010864
-0.021173
0.009399
-0.009969
0.001631
0.009330
-0.015926
-0.000457
0.035820
0.006868
0.008928
-0.010138
-0.019756
0.012795
-0.011207
0.010940
0.019405
0.001885
-0.001075
0.009301
-0.026556
0.023213
0.007659
0.011606
-0.011395
0.011751
0.010334
0.000195
-0.005559
0.022877
-0.004682
0.043525
0.034281
0.030448
0.068878
0.038201
0.077044
0.070810
0.108667
0.100531
0.094319
0.090578
0.073452
0.103191
0.159163
0.163310
0.108825
0.148977
0.125418
0.142807
0.153965
0.125378
0.166736
0.141403
0.134412
0.148476
0.134103
0.117776
0.108594
0.126283
0.089516
0.089833
0.073598
0.074155
0.032242
0.046519
0.036652
0.032191
0.007689
0.027980
0.020595
0.021912
0.022499
0.020118
0.003085
-0.010703
-0.000782
-0.017904
-0.013101
-0.023847
-0.000204
-0.032110
-0.062560
-0.056973
-0.061951
-0.046188
-0.018709
0.022004
0.067044
0.166575
0.255753
0.330462
0.489781
0.594202
0.724540
0.824168
0.911997
0.949271
0.956215
0.947336
0.870139
0.766981
0.662097
0.504506
0.351896
0.251312
0.131948
0.015931
-0.045427
-0.098517
-0.131804
-0.130587
-0.124345
-0.125519
-0.088527
-0.069343
-0.045883
-0.018753
0.022513
0.036789
0.045206
0.036781
0.076066
0.054822
0.087958
0.083259
0.075306
0.089506
0.098076
0.134691
0.109025
0.142884
0.133344
0.151246
0.146605
0.114471
0.150980
0.172605
0.154001
0.157493
0.157211
0.176627
0.170327
0.197794
0.171527
0.194618
0.193532
0.207477
0.217562
0.222039
0.233100
0.239884
0.231367
0.227013
0.220324
0.257431
0.253392
0.243211
0.254881
0.265904
0.277295
0.284302
0.282651
0.282132
0.284678
0.272274
0.292541
0.297263
0.306051
0.294377
0.288089
0.300750
0.308554
0.318419
0.290407
0.312651
0.301581
0.285923
0.312334
0.293200
0.255418
0.273867
0.283076
0.292023
0.285618
0.286653
0.300912
0.276765
0.286316
0.288267
0.290348
0.297622
0.277019
0.279512
0.271222
0.242479
0.259398
0.232490
0.233489
0.215984
0.204266
0.228281
0.192199
0.194418
0.187529
0.176402
0.206927
0.199335
0.201263
0.188056
0.155986
0.165044
0.166818
0.146220
0.138422
0.125758
0.123630
0.112438
0.138197
0.130768
0.128230
0.100660
0.112175
0.126469
0.107602
0.081340
0.085811
0.069040
0.071351
0.081714
0.064422
0.057527
0.069841
0.078111
0.037690
0.058418
0.050699
0.050867
0.055231
0.039474
0.038011
0.040910
0.012464
0.031905
0.003061
0.059242
0.036775
0.034652
0.012821
0.039838
0.008247
0.036527
0.033366
-0.002163
0.030371
0.008181
0.044443
0.013410
-0.001605
0.020847
0.011129
0.011369
0.021704
0.028952
0.014211
-0.021984
0.002028
0.024519
0.011619
0.008379
0.009224
-0.018006
0.007023
-0.007461
0.019320
-0.001449
-0.025225
-0.002257
0.003547
0.000085
-0.003104
0.024646
0.027629
0.006094
0.014530
0.015272
-0.024321
0.018851
0.004089
0.001477
-0.017132
-0.013750
-0.002627
-0.015094
-0.002701
0.029091
0.006746
0.010376
0.002376
0.006526
-0.027244
0.020167
-0.003560
0.011681
0.018021
0.022327
0.014503
-0.007278
-0.008079
0.025259
-0.011831
0.006221
-0.005783
-0.003031
-0.016193
0.002592
0.002730
0.014545
0.016801
0.033258
-0.015872
-0.011524
0.006596
0.004803
0.004704
-0.017591
-0.018449
-0.002642
-0.003673
-0.014790
0.030301
-0.001661
0.010004
0.005228
0.004438
0.011932
0.019344
0.002387
-0.006533
0.009035
0.015822
0.001299
-0.009555
0.006555
-0.030120
-0.027958
-0.008014
0.001790
-0.015949
0.001633
0.006423
-0.000845
-0.002088
0.017972
-0.000076
-0.002144
0.030217
-0.026588
-0.018766
0.009025
-0.003743
0.000365
-0.004480
0.025259
0.001231
0.000085
0.004191
0.011751
0.015862
-0.025080
0.009850
-0.010722
0.016464
-0.002375
-0.002721
0.023261
-0.005684
0.008792
0.023440
0.012170
-0.026102
0.001025
-0.010159
-0.013837
0.008662
-0.000613
0.000694
-0.003243
-0.016610
0.027621
0.006482
-0.008209
-0.027683
-0.002691
-0.013530
0.000127
-0.007525
-0.006607
-0.023620
-0.026014
-0.036027
-0.006345
-0.023791
0.000352
-0.031078
-0.009596
-0.003498
0.000393
-0.011771
0.004186
-0.009851
-0.030285
-0.002275
0.001244
-0.020881
-0.000293
-0.031006
0.008570
0.010666
0.000958
-0.003485
0.034416
-0.008349
-0.008918
-0.005115
-0.013603
0.015246
-0.015778
0.021929
0.008597
-0.019524
0.005475
-0.013083
-0.010692
-0.001880
0.013484
-0.002365
0.009959
-0.028724
0.021244
0.019119
0.019312
-0.007629
-0.006087
-0.004061
0.017161
0.008166
0.009492
0.015180
0.006867
-0.009788
-0.004416
-0.026029
0.020957
-0.013905
0.009093
-0.003732
0.022361
0.004346
0.019454
0.024535
-0.003394
0.026197
0.016250
0.018448
0.009503
-0.012324
-0.010779
0.001360
-0.011399
-0.009823
-0.015393
-0.017946
0.005893
-0.003473
0.000321
0.005255
-0.006590
-0.011810
-0.015921
0.015912
-0.000605
0.011863
-0.012777
-0.017342
0.013376
0.018882
0.011903
0.015527
0.018537
0.002391
-0.000881
-0.016650
-0.006169
0.008760
-0.015414
-0.009879
0.000787
0.000829
-0.013699
-0.007850
-0.004545
0.001220
0.005068
-0.018661
0.009843
-0.015118
-0.025527
-0.024868
-0.010390
0.011509
0.007452
-0.008074
0.014847
-0.024941
-0.014124
0.016044
0.012854
-0.001406
0.004576
-0.008587
-0.003446
-0.000719
-0.002624
-0.013864
-0.011067
0.010868
-0.008047
0.001480
-0.002431
-0.006938
-0.009764
-0.001052
-0.015064
-0.010065
0.017855
0.028170
0.010661
-0.009882
-0.028100
0.002402
0.018261
-0.005477
-0.029010
-0.010644
-0.005991
-0.007172
0.014469
-0.009593
-0.000880
-0.029817
-0.020162
0.007321
0.023479
0.005920
-0.017348
-0.015788
0.008593
0.011282
-0.029067
0.024294
-0.011938
-0.031798
0.004224
-0.021000
-0.004121
-0.027531
0.000814
0.008279
-0.004069
0.001540
0.006007
0.000605
0.032596
0.001733
0.007927
-0.002083
0.024574
0.028101
0.007700
0.017242
0.002418
0.005448
-0.013130
-0.044844
-0.023813
-0.021437
-0.014077
-0.019068
-0.011827
0.002529
-0.027048
-0.007667
-0.002214
-0.006959
0.002865
-0.018941
0.012546
0.006177
0.003136
0.029523
-0.012374
0.010743
-0.014029
0.012699
0.021139
0.001748
0.006877
0.014340
0.021198
0.024196
0.006836
0.011769
0.015252
0.000319
0.008813
0.059290
0.013274
0.032754
0.032780
0.062729
0.061731
0.058447
0.078438
0.067065
0.108071
0.097948
0.129136
0.115811
0.129401
0.146282
0.125427
0.173613
0.141495
0.178140
0.129549
0.147821
0.160595
0.159811
0.129751
0.112382
0.121977
0.120041
0.104494
0.122283
0.088033
0.070536
0.058379
0.067001
0.077439
0.061778
0.015304
0.050247
0.064281
0.027780
0.021833
0.013935
-0.009680
-0.002952
0.014973
0.022064
0.001588
-0.028347
-0.000505
-0.024660
-0.013053
-0.018303
-0.041265
-0.045095
-0.052480
-0.023161
-0.001830
0.011921
0.079642
0.150331
0.254580
0.354222
0.487771
0.606107
0.713838
0.819621
0.901425
0.966745
0.949472
0.939849
0.866893
0.779940
0.635151
0.516933
0.352295
0.255448
0.136837
0.043624
-0.051022
-0.080481
-0.106720
-0.120431
-0.131992
-0.106252
-0.108412
-0.057139
-0.020262
0.006064
0.013530
0.015958
0.044725
0.045855
0.063506
0.067846
0.076579
0.071203
0.100556
0.107723
0.106921
0.108276
0.108178
0.093027
0.113565
0.106800
0.148426
0.143694
0.162429
0.167820
0.144173
0.146216
0.172941
0.178875
0.167926
0.209639
0.189426
0.164800
0.176843
0.217003
0.213091
0.214530
0.212871
0.230472
0.226622
0.187652
0.250132
0.247164
0.260153
0.263430
0.275560
0.247752
0.248102
0.275687
0.258955
0.281516
0.286682
0.271235
0.306529
0.302492
0.303051
0.292584
0.295945
0.305962
0.311999
0.327360
0.297369
0.294635
0.314675
0.291150
0.264994
0.297148
0.287453
0.287447
0.312422
0.283324
0.281947
0.305605
0.285346
0.259892
0.265931
0.288153
0.303871
0.264960
0.278014
0.256934
0.261226
0.251114
0.249483
0.253016
0.219718
0.229259
0.224717
0.213708
0.190175
0.191752
0.190547
0.183489
0.158233
0.171732
0.153101
0.154454
0.173788
0.160465
0.164766
0.153539
0.140125
0.125781
0.112280
0.130207
0.113844
0.122317
0.094508
0.115793
0.111142
0.080659
0.075350
0.082418
0.052279
0.042316
0.059716
0.047772
0.050328
0.054667
0.085919
0.069367
0.045848
0.071326
0.069318
0.036662
0.045207
0.021358
0.055680
0.037450
0.014570
0.026881
0.065363
0.045809
0.057411
0.017109
0.038529
0.008111
0.037387
0.010893
0.033611
0.023193
0.050201
0.005117
0.007921
-0.005856
0.019418
-0.012839
0.016268
0.010722
0.016444
0.007849
-0.003693
0.020302
-0.006391
-0.014730
0.023508
-0.005391
0.001333
0.003964
-0.012732
0.008145
0.008646
0.026580
0.019849
-0.014358
-0.000441
0.010069
-0.005351
0.000279
0.029492
-0.001341
0.018685
0.010681
0.032906
0.006141
-0.009348
-0.000829
-0.001499
-0.012462
-0.015662
0.016922
0.010885
-0.015728
0.013674
0.010597
-0.018260
0.009141
-0.009672
0.005852
-0.022482
0.006011
0.013559
-0.001998
-0.010441
0.023402
0.011713
-0.007358
-0.003175
-0.005200
-0.003867
0.001864
-0.000575
0.032464
-0.001278
-0.002684
-0.008667
0.003947
-0.008043
-0.004307
0.011779
0.007249
0.001990
0.024340
0.010091
0.006874
0.008446
-0.013039
-0.032818
-0.001104
-0.012670
-0.021059
-0.006382
0.006465
0.023590
-0.017566
-0.011168
-0.002176
0.006416
-0.013233
-0.028251
0.017752
-0.027874
-0.011423
0.012286
0.005469
-0.006869
0.002182
-0.016814
-0.013773
-0.007282
0.024606
-0.000228
0.011274
0.026382
-0.019202
0.001595
0.017241
-0.003357
0.009280
0.012451
0.000159
-0.017931
-0.022087
-0.002024
0.025563
0.008268
-0.006484
0.006535
0.013300
-0.008855
0.010419
0.005068
-0.019933
0.004161
0.004293
-0.015370
0.016773
-0.000674
0.029631
-0.001465
0.025873
-0.015014
0.004709
0.006825
-0.009465
-0.011751
0.001879
0.021274
-0.033345
0.003467
0.014014
0.034295
-0.008237
-0.004631
0.008295
-0.019553
-0.009348
0.033661
-0.024586
0.000381
-0.003609
0.004684
-0.008450
-0.011304
0.007262
0.028494
-0.012560
-0.018182
0.031288
-0.008083
-0.016297
-0.019545
-0.019528
0.025848
0.004012
-0.024701
-0.013341
0.004576
-0.007692
-0.011367
-0.032509
-0.017351
0.017406
0.001481
-0.009686
0.009172
0.001908
0.027824
0.008912
-0.015945
0.001537
0.013166
-0.007917
0.021663
-0.026433
-0.001057
0.004300
-0.013861
-0.016157
0.010323
-0.001245
0.013575
0.004215
0.011232
-0.011644
-0.012667
-0.010664
-0.016307
0.036683
-0.032427
0.007488
0.005393
0.024472
-0.017145
-0.007864
0.010622
0.009979
0.015587
0.022170
0.023188
-0.016832
0.009027
0.011372
0.011232
-0.012114
-0.006006
0.022843
-0.000202
0.029938
0.011863
-0.000600
0.025121
-0.002918
0.018207
-0.000796
0.011863
0.022010
-0.016062
0.000760
0.012014
0.000390
-0.015040
-0.002682
-0.004547
0.035615
-0.026227
0.003226
0.015665
-0.004945
-0.002227
-0.005171
-0.005528
0.003121
0.025587
0.000181
0.012651
0.028135
-0.021036
0.013264
0.003834
-0.012548
0.018858
0.001868
0.001254
-0.001175
0.026150
-0.005535
0.002898
-0.013765
-0.004002
0.004520
0.013959
-0.006231
0.025945
-0.012480
0.002508
0.003761
0.002257
0.008785
0.022564
-0.000865
0.004294
-0.018076
-0.000688
-0.035047
0.011244
0.000674
0.007692
-0.008905
0.003338
0.002228
-0.019843
0.007958
0.015375
0.002261
0.037299
-0.006648
0.020576
0.030943
-0.003177
0.031439
-0.008006
-0.020342
0.035459
-0.001502
-0.011466
0.016520
-0.011437
0.005399
0.000846
-0.021965
-0.022990
-0.023603
-0.005411
0.012015
0.014842
0.005147
0.021044
-0.011861
0.021324
0.005098
-0.008297
0.001562
0.024212
0.023673
0.023451
0.003478
-0.018426
-0.007333
-0.003683
0.000107
0.034189
-0.016118
0.016044
-0.005349
0.020140
-0.003432
0.005399
0.017368
0.002798
-0.010347
0.006231
0.003297
-0.011892
-0.005828
-0.006758
0.004988
-0.000244
-0.011838
0.018851
0.000983
-0.013054
0.008805
-0.020742
-0.004431
0.012441
-0.023580
-0.006095
0.001342
0.005495
-0.021806
0.014745
0.012388
-0.003971
0.009691
-0.016963
-0.023380
0.004406
0.006878
0.034768
0.022371
0.024389
0.019474
0.039469
0.022556
0.045168
0.036563
0.044768
0.071583
0.048717
0.082880
0.069630
0.077977
0.082196
0.106964
0.138837
0.121378
0.124055
0.138743
0.156553
0.175254
0.163270
0.154930
0.109309
0.142931
0.133997
0.153101
0.143102
0.106927
0.126870
0.092079
0.082725
0.086105
0.064511
0.091273
0.089029
0.037935
0.051426
0.072075
0.052015
0.036843
0.009078
0.009851
0.017506
0.028301
0.035292
-0.007052
0.002155
-0.000377
0.021881
-0.020435
-0.020058
-0.001562
-0.038916
-0.059797
-0.044117
-0.056747
-0.036881
0.003628
0.026211
0.086002
0.139733
0.261828
0.354549
0.488709
0.623155
0.716320
0.828845
0.912700
0.960179
0.993830
0.936592
0.881167
0.755435
0.658270
0.505616
0.387513
0.254956
0.144491
-0.012661
-0.057449
-0.092753
-0.134890
-0.131283
-0.104547
-0.125183
-0.079311
-0.067281
-0.024553
0.006134
0.007904
0.035222
0.019646
0.057028
0.073652
0.084491
0.067444
0.066298
0.113526
0.098778
0.081692
0.092647
0.112673
0.100353
0.109518
0.136229
0.113395
0.111684
0.142247
0.141044
0.176131
0.171875
0.158415
0.165065
0.152431
0.189946
0.166032
0.202873
0.197273
0.239379
0.226599
0.223172
0.209862
0.208066
0.235798
0.220200
0.255737
0.237160
0.240760
0.272758
0.262305
0.278399
0.279001
0.275537
0.262710
0.297923
0.262556
0.266554
0.304549
0.295101
0.307225
0.267933
0.289925
0.307118
0.307843
0.305877
0.291556
0.309705
0.307410
0.322785
0.285370
0.299975
0.290795
0.289485
0.274214
0.295561
0.301292
0.302930
0.261914
0.269422
0.257601
0.314715
0.288335
0.242617
0.269132
0.264778
0.232610
0.235339
0.238299
0.242889
0.235701
0.240646
0.212833
0.217733
0.229556
0.207822
0.197063
0.193533
0.168420
0.196373
0.203558
0.173815
0.146949
0.175274
0.141110
0.158697
0.133963
0.162754
0.142433
0.133765
0.133523
0.133272
0.115112
0.130388
0.116991
0.099766
0.085968
0.100224
0.097501
0.067911
0.080537
0.073392
0.066558
0.057961
0.065008
0.047359
0.082859
0.036734
0.050033
0.074784
0.053615
0.043141
0.071403
-0.002542
0.032948
0.026207
0.035733
0.018818
0.024713
0.019747
0.019897
0.000332
0.017867
0.020039
0.024217
0.001688
-0.016587
0.026892
0.009069
-0.004326
0.001819
0.023258
0.008342
0.004974
-0.003310
0.003987
0.008459
0.007759
0.016679
-0.003971
-0.009391
0.008391
0.019819
0.008134
-0.010595
0.013094
-0.002643
0.012553
0.011598
-0.001303
-0.007209
0.013854
-0.012309
-0.012961
-0.010791
0.014135
0.025849
-0.010418
0.007473
-0.013997
-0.002456
-0.015284
0.011123
0.010333
0.040338
-0.018717
0.026413
0.012637
-0.012435
0.007673
0.008491
-0.022903
-0.024944
-0.028312
-0.013370
0.012309
0.011729
-0.004326
-0.008711
-0.010624
0.009658
0.003518
-0.007003
0.025454
0.015800
-0.025820
-0.022913
0.012529
0.029562
-0.013074
-0.006696
0.017103
0.021206
-0.000056
0.010669
-0.009398
-0.006052
-0.005160
0.019083
0.006409
-0.009931
0.001917
0.025113
-0.017321
-0.000555
0.007032
0.018531
-0.006192
-0.011097
0.009217
0.010231
0.002856
-0.005059
-0.027398
0.015450
-0.009856
0.014243
-0.006894
-0.008146
-0.014358
-0.019692
-0.000078
-0.018810
-0.009913
0.034564
-0.005243
0.014368
-0.024633
0.011749
-0.038820
0.009177
-0.009941
0.014985
0.006553
-0.005932
-0.016779
-0.017383
0.001444
-0.015517
-0.018301
-0.006314
-0.008888
0.001215
0.003970
-0.021906
0.011679
-0.004956
-0.002459
-0.001974
-0.009764
0.008020
0.016397
-0.000737
0.014326
0.032743
-0.006060
0.008798
-0.002410
0.000056
0.002475
-0.001712
-0.010978
-0.002744
-0.018000
-0.006942
-0.022403
-0.009794
0.025051
-0.023405
-0.013910
0.017426
0.008617
0.001007
-0.009472
-0.012265
0.010492
-0.005218
0.008606
-0.008750
-0.029309
0.004911
0.004383
0.005490
0.037226
-0.016660
0.010649
0.004487
0.009431
0.007615
-0.002169
-0.023636
-0.014876
0.000603
-0.025458
-0.034055
0.015944
0.005343
-0.003828
0.014790
0.006690
-0.008664
0.018091
-0.000540
-0.004275
-0.007235
-0.020006
-0.017877
-0.012303
-0.002100
0.019219
-0.008152
0.002426
-0.012464
-0.002148
0.008947
-0.033134
0.010553
-0.004712
0.000000
-0.011704
0.007945
-0.011619
-0.001729
0.005455
0.025877
-0.004071
0.004608
-0.008093
0.048484
0.004941
0.006363
-0.001945
-0.011187
0.011242
-0.031674
0.007739
-0.002992
0.004942
0.027059
-0.015146
0.016732
-0.002542
-0.003863
-0.022700
0.020418
0.013368
-0.013328
-0.011309
-0.022954
-0.003264
-0.004377
-0.025093
-0.004916
-0.003681
-0.010783
-0.011856
-0.003527
-0.011161
-0.036269
0.014542
0.010294
-0.007253
-0.001543
-0.000725
0.015532
-0.027658
0.012236
-0.017247
0.023429
-0.004126
-0.009997
-0.022440
0.010788
0.008530
-0.005492
-0.007620
-0.008332
-0.001672
-0.010329
-0.034922
0.007006
-0.000192
0.021537
0.011264
-0.005591
-0.016590
0.001182
-0.015880
0.010001
0.021933
0.003665
0.011520
-0.008711
0.002003
-0.005924
-0.002808
0.018660
-0.003877
0.026728
-0.004121
0.007068
-0.006635
0.015778
0.002765
0.021426
-0.007451
0.030901
-0.011844
0.019269
0.014251
-0.014514
0.010512
-0.014426
-0.005551
-0.024099
0.019738
-0.005132
0.008268
-0.020773
-0.010223
0.021785
0.007824
-0.008016
0.003515
0.011289
-0.009169
-0.017059
0.002219
0.009755
0.001849
0.003709
0.016976
-0.007645
0.045789
0.012510
-0.003512
0.008149
0.009064
0.000470
-0.009559
-0.018586
-0.005176
-0.021737
0.014224
-0.008547
-0.014698
0.020255
0.028572
0.006569
-0.008983
-0.020021
-0.003223
0.008918
0.011461
-0.001111
-0.002385
0.017767
-0.005932
0.000326
-0.025051
0.012846
0.018710
0.002066
-0.000243
0.006749
0.018429
0.017142
-0.005107
0.023543
-0.005013
0.030040
0.002937
-0.003317
0.017727
-0.018570
0.011108
-0.021712
-0.022407
0.007339
-0.003190
-0.000344
-0.021630
0.001946
0.019542
0.024396
-0.001496
0.026390
0.002551
0.031820
0.025663
0.033074
0.044655
0.045765
0.039665
0.055255
0.066045
0.081622
0.072677
0.103185
0.095624
0.097017
0.116224
0.114944
0.139235
0.147825
0.164668
0.162568
0.151752
0.183166
0.159764
0.147443
0.152011
0.144003
0.122079
0.102678
0.127682
0.111175
0.097391
0.094977
0.054502
0.062989
0.045277
0.047617
0.041691
0.037310
0.069115
0.017061
0.010156
0.006955
0.026297
0.023509
-0.013572
-0.000521
-0.006400
-0.020750
-0.031354
-0.011962
-0.057913
-0.047233
-0.073295
-0.043078
-0.039844
-0.026754
-0.000233
0.027054
0.061194
0.150026
0.257330
0.360112
0.497739
0.586708
0.737100
0.807987
0.912547
0.971599
0.952229
0.941304
0.881413
0.763033
0.673146
0.511978
0.381253
0.246825
0.114855
0.040372
-0.054787
-0.103046
-0.128490
-0.155643
-0.120715
-0.109886
-0.065405
-0.077872
-0.031879
-0.013311
0.006978
0.031679
0.067781
0.060608
0.082719
0.050879
0.095619
0.091217
0.079532
0.090059
0.085757
0.121236
0.093463
0.129936
0.141069
0.122217
0.127995
0.154425
0.156958
0.145902
0.173334
0.154392
0.178547
0.159486
0.199917
0.185098
0.180506
0.187509
0.204384
0.212051
0.214700
0.220344
0.236243
0.220992
0.237405
0.256463
0.233836
0.234312
0.258321
0.271899
0.265795
0.263486
0.258911
0.265526
0.283927
0.293581
0.283929
0.286328
0.291954
0.310571
0.307050
0.289629
0.279594
0.288372
0.341922
0.319711
0.325630
0.288866
0.325558
0.302030
0.306988
0.320099
0.309938
0.288370
0.291848
0.278777
0.300370
0.279541
0.270087
0.288489
0.278783
0.288676
0.296764
0.288306
0.266079
0.262421
0.243512
0.257253
0.241822
0.219301
0.215712
0.235700
0.213285
0.217268
0.234647
0.223870
0.202945
0.201138
0.199086
0.184620
0.153754
0.146762
0.164944
0.159920
0.134313
0.177209
0.170645
0.123375
0.160394
0.141218
0.127505
0.112302
0.074214
0.106724
0.101899
0.103436
0.080602
0.081518
0.099882
0.086023
0.093008
0.093788
0.071521
0.054789
0.067678
0.067987
0.046468
0.089881
0.069732
0.034757
0.036327
0.048192
0.045492
0.033011
0.057201
0.020937
0.030942
0.010613
0.021149
0.017011
0.018926
0.014245
0.041728
0.015645
-0.005942
0.003628
0.023548
0.046565
0.024894
0.012182
0.038194
0.030299
0.028208
0.013786
-0.012293
0.012294
0.027946
0.001807
0.029324
0.017937
0.004473
-0.006433
0.011099
-0.011691
0.006837
0.003802
0.000691
-0.005838
0.004303
0.010894
0.005123
0.003725
-0.042811
0.001311
-0.030539
-0.005886
0.017754
-0.009656
-0.009325
-0.023228
-0.013460
0.000080
-0.007842
0.004555
0.007760
-0.014257
-0.016274
-0.004525
-0.021788
-0.007211
-0.018172
0.013089
-0.005842
-0.003513
0.004179
-0.003529
0.012634
0.003733
-0.006424
-0.001769
-0.002431
0.012581
0.020211
0.027310
-0.008855
-0.019352
0.029266
0.005356
-0.012525
0.011178
0.012341
0.010152
0.014392
-0.008500
-0.017957
-0.014212
-0.010894
0.009368
0.021017
-0.005723
-0.019521
-0.010791
0.008566
-0.017564
0.004155
-0.008152
-0.001977
0.012853
-0.016689
-0.016199
-0.023719
-0.005378
0.009790
0.007532
0.015336
0.019444
0.008347
0.024634
-0.016457
0.014142
-0.040779
0.025895
0.048687
0.000496
-0.001810
-0.006183
-0.007556
0.014449
-0.001685
0.005700
0.003558
0.005651
0.009023
-0.004220
-0.021727
-0.018319
-0.022718
-0.029658
0.014452
-0.022180
0.000504
-0.004257
0.023929
-0.004842
-0.023965
-0.001623
0.001437
-0.003141
-0.001435
0.006832
0.014083
0.012085
0.024309
0.006032
0.019070
-0.031095
-0.000554
-0.005424
-0.010854
-0.000012
0.011518
0.008593
-0.017286
0.007927
-0.032245
-0.037229
-0.004232
-0.008751
-0.001703
-0.000352
-0.010993
-0.005661
0.017344
-0.015851
-0.022421
0.010730
0.025011
-0.002641
-0.003618
-0.014432
0.011359
-0.007668
-0.005676
0.003202
0.023388
0.008518
0.007247
0.001716
-0.022956
0.001651
-0.014316
0.014397
-0.018760
0.001290
0.002914
0.014329
-0.007981
-0.006201
0.020489
0.004192
0.018727
-0.005417
0.001465
0.003427
0.004495
-0.016160
-0.008271
0.008141
-0.010548
0.017914
0.016253
0.008536
-0.019986
-0.010705
-0.010367
0.001842
-0.002955
0.002176
0.022542
0.012406
-0.009675
-0.001103
0.008733
-0.015504
-0.012219
-0.009752
-0.010401
0.006591
0.016702
-0.006736
-0.001707
-0.006383
-0.002486
0.008697
0.007761
0.011927
0.017372
-0.019327
0.013248
-0.006723
-0.018104
-0.007842
0.000704
-0.032367
0.004389
0.014114
0.001883
-0.014091
0.011403
0.007868
-0.006898
-0.002140
-0.011020
0.030238
-0.007627
-0.018582
-0.022514
-0.002780
-0.012481
-0.010010
-0.004662
-0.025604
-0.012481
0.033906
-0.018868
0.002265
-0.009097
0.012995
0.012224
0.013012
0.011649
0.018609
-0.004346
-0.015943
0.010637
0.048428
-0.027691
-0.014551
-0.013964
0.026058
-0.006879
0.002028
-0.005760
0.008173
0.017097
-0.008309
-0.009472
0.002419
-0.015264
0.010268
0.003930
-0.010318
-0.006833
0.012018
0.017082
-0.011325
-0.007484
0.014925
0.004462
0.019943
-0.013739
-0.001850
0.008286
0.016114
-0.006314
0.000755
0.027725
-0.012279
-0.000207
0.014065
0.012178
0.001447
-0.026304
-0.007220
0.000925
0.026875
-0.019235
0.012726
-0.001902
-0.010411
0.027978
-0.015723
-0.001144
0.009908
0.008831
0.038134
0.010113
0.018734
-0.021576
-0.019109
-0.021396
0.009868
-0.012688
0.009782
-0.009436
-0.012700
0.009641
-0.017015
0.019599
0.030273
0.004434
-0.011139
-0.020138
-0.000317
0.007029
-0.005266
0.004479
0.008297
0.013220
0.035149
0.015715
0.017758
-0.001045
-0.012836
0.015053
0.008145
0.007355
-0.008897
0.022249
-0.005339
0.006958
0.009652
0.015514
0.023346
-0.026109
-0.015769
-0.030192
-0.003992
0.001903
-0.007590
-0.019264
-0.018171
0.002917
-0.008996
-0.022662
0.013098
0.013590
0.007695
-0.019914
-0.016390
0.018820
-0.016636
0.036385
0.049187
0.013708
0.056797
0.031362
0.040903
0.007445
0.046772
0.036673
0.032216
0.050300
0.067955
0.059145
0.082143
0.091312
0.083441
0.087458
0.081461
0.126840
0.137087
0.116637
0.162787
0.157401
0.147519
0.140355
0.170175
0.165363
0.132549
0.116590
0.123401
0.139310
0.153378
0.128761
0.111268
0.117668
0.103780
0.080420
0.087447
0.080465
0.056577
0.068613
0.044599
0.032935
-0.001405
0.011512
0.004100
0.007359
0.026451
0.014655
0.005380
-0.016618
-0.028682
-0.007148
0.000214
0.013784
-0.030340
-0.064860
-0.043606
-0.029102
-0.037540
-0.059847
-0.029345
0.039067
0.105397
0.196094
0.228859
0.366455
0.488655
0.618503
0.736500
0.831634
0.890334
0.969324
1.001584
0.928688
0.864025
0.777010
0.653100
0.544593
0.381579
0.255460
0.138139
0.020941
-0.048071
-0.094416
-0.120930
-0.133603
-0.109142
-0.092255
-0.064606
-0.100021
-0.058698
-0.017678
0.015156
0.037176
0.039271
0.068875
0.033441
0.092771
0.097298
0.074807
0.079945
0.087073
0.090466
0.102960
0.081443
0.098386
0.108061
0.097258
0.132890
0.151495
0.152639
0.168908
0.146042
0.166399
0.142404
0.164713
0.177155
0.180069
0.191674
0.217585
0.206251
0.194442
0.205175
0.226648
0.227520
0.219466
0.224808
0.215458
0.221759
0.259219
0.270083
0.253482
0.242275
0.263239
0.252259
0.279912
0.282400
0.303193
0.277664
0.281465
0.331040
0.278036
0.322806
0.282343
0.296760
0.284555
0.312979
0.284628
0.316787
0.280823
0.301022
0.300558
0.312697
0.292423
0.276158
0.306075
0.298164
0.297426
0.293925
0.279145
0.249203
0.271882
0.282320
0.268235
0.253567
0.269994
0.267813
0.240588
0.262619
0.254566
0.230518
0.237612
0.228741
0.241600
0.261433
0.202232
0.216505
0.204134
0.182650
0.147145
0.180001
0.202554
0.156180
0.207293
0.177701
0.166586
0.167930
0.142535
0.164853
0.163654
0.134168
0.117796
0.133977
0.098688
0.123137
0.113641
0.114448
0.131181
0.083012
0.109990
0.063945
0.066346
0.100256
0.074689
0.060744
0.084078
0.049560
0.057336
0.054716
0.072296
0.052475
0.035313
0.010032
0.057249
0.027395
0.005783
0.035659
0.031604
0.054015
0.037800
0.039230
0.029205
0.010537
0.011568
0.036607
0.024592
0.009087
-0.012811
0.032595
0.035765
-0.012523
0.023261
0.006308
0.001720
0.027580
0.021767
0.007563
0.008779
-0.011819
0.020694
-0.019356
0.008512
0.000903
0.010763
0.007270
0.002600
0.033097
0.012356
-0.008858
-0.009249
0.026146
-0.010916
-0.002906
-0.005068
0.006078
-0.001018
-0.000014
0.027613
-0.011625
-0.006399
-0.034799
0.029253
0.034244
0.021554
-0.004885
0.007001
0.013557
-0.003214
0.010981
0.005207
-0.007312
-0.007080
0.006118
-0.020394
0.012991
0.004357
0.016056
0.000187
-0.026236
0.008538
-0.015200
-0.044036
-0.001541
0.018249
0.008414
0.037602
-0.020532
0.001466
-0.028039
0.012625
-0.001127
-0.021260
-0.011712
-0.005572
0.012708
0.002662
-0.018053
0.008394
0.015386
-0.009321
-0.009540
0.003342
-0.024912
0.020044
0.017949
-0.015437
-0.007513
0.035477
-0.002477
0.044738
-0.009776
-0.007506
-0.008012
0.003332
-0.012645
-0.007994
0.002814
-0.007658
0.007411
-0.008398
-0.004341
-0.028078
0.017618
-0.007823
-0.005771
0.008960
0.010087
0.023507
0.019525
0.000086
0.000345
-0.007508
0.023498
-0.050286
0.001819
0.011109
-0.001359
0.005645
0.006468
0.007187
-0.011726
-0.013050
-0.001030
0.040571
0.006514
-0.018613
-0.005620
0.011196
0.014430
0.030203
0.019951
0.000477
-0.013184
-0.003347
-0.015398
-0.005105
-0.004707
0.011899
0.004121
-0.009904
0.003361
-0.004800
-0.012655
-0.008532
0.003082
0.008636
-0.011842
0.005464
0.017662
0.008132
-0.001326
0.023822
-0.019513
-0.001998
0.002013
-0.021010
-0.004917
-0.014971
0.039140
0.029523
0.008554
0.002683
0.001383
-0.015680
-0.009024
-0.018742
0.005430
-0.019287
-0.001512
-0.015374
-0.001195
-0.008598
0.019925
0.017460
0.007351
-0.012872
-0.003147
0.009033
-0.010102
-0.018713
0.009572
0.011236
0.001970
-0.007846
-0.001521
-0.016588
-0.003264
0.012358
0.001113
-0.017694
0.004692
-0.017412
-0.004634
0.008000
0.023282
0.036230
0.011345
0.007256
-0.020595
-0.000757
-0.025701
0.008081
0.019018
0.020438
-0.009826
-0.011460
-0.008138
0.002111
0.005784
-0.000806
-0.019416
-0.014805
-0.004661
-0.002700
0.006377
-0.021997
0.010428
-0.016373
-0.017904
0.001527
0.003021
-0.008179
0.010673
0.008861
0.000375
0.029566
0.006420
-0.020403
-0.015180
-0.016663
0.004154
-0.026824
0.006730
0.000620
-0.022523
-0.013081
0.024714
-0.016859
0.005260
-0.006726
0.001791
-0.010679
-0.008514
0.003449
0.007434
0.005666
0.004376
0.013521
-0.011079
0.027700
-0.005844
-0.007308
0.012176
-0.001784
-0.012648
0.011777
0.020636
0.006717
-0.003891
0.026832
-0.006523
-0.008340
0.014134
-0.043679
0.006029
-0.001909
0.009543
-0.015307
0.002359
-0.003461
0.024249
0.010321
0.011655
-0.009534
0.020062
-0.013319
0.016266
-0.005599
-0.024898
-0.015223
0.018868
-0.009229
0.009683
0.017590
0.015508
0.022521
0.018430
0.003631
0.007537
0.009477
-0.024231
0.004406
-0.003306
0.000340
0.008864
0.007524
0.023302
-0.005206
-0.006074
0.001578
-0.016452
0.003022
0.018447
0.000761
0.005149
-0.015826
-0.031350
-0.013815
-0.002569
-0.003053
0.008330
0.009146
0.000330
0.000941
-0.010217
0.028707
0.000911
-0.026937
0.032755
0.002436
0.023670
-0.012615
-0.013729
-0.000394
-0.017412
0.010434
-0.002290
0.001751
0.002131
0.011644
-0.007543
-0.016911
-0.006280
0.000257
-0.029756
0.010574
-0.000417
-0.018309
-0.004980
-0.012215
0.012010
0.009799
-0.010810
0.007247
-0.006582
-0.002942
-0.005361
-0.002679
-0.008986
-0.024801
0.000911
0.004739
0.002111
-0.009439
0.005920
0.001289
-0.002902
-0.001024
-0.001904
0.010684
0.000594
0.013356
-0.035212
0.037676
0.011064
0.017159
0.005711
0.020548
0.012993
0.007644
0.041860
0.019673
0.045818
0.071121
0.077517
0.047634
0.082128
0.076990
0.093387
0.104725
0.097547
0.112952
0.098021
0.126258
0.144851
0.143159
0.128094
0.148738
0.140001
0.175433
0.136122
0.161942
0.123683
0.139521
0.128934
0.122088
0.114146
0.143174
0.068757
0.084759
0.090269
0.053930
0.060134
0.078098
0.052131
0.039026
0.028674
0.021015
0.015863
0.028639
0.033428
-0.018335
-0.015539
0.016576
0.001425
-0.001470
-0.015526
-0.028581
-0.050242
-0.011944
-0.044032
-0.040339
-0.048456
-0.062720
-0.027165
0.012394
0.013983
0.107172
0.129740
0.248315
0.380676
0.463473
0.601132
0.715013
0.849992
0.891586
0.929472
0.960337
0.935613
0.886956
0.792999
0.662567
0.486869
0.388997
0.234697
0.132062
0.030932
-0.036632
-0.109615
-0.136129
-0.135367
-0.133133
-0.133492
-0.089005
-0.058050
-0.033908
-0.033669
0.038031
0.007910
-0.008615
0.043025
0.051665
0.102275
0.087846
0.034465
0.063476
0.089319
0.085057
0.109410
0.112320
0.124588
0.126224
0.114841
0.110387
0.117494
0.155212
0.144213
0.152081
0.127503
0.163963
0.166841
0.171843
0.154270
0.188069
0.184028
0.194200
0.208077
0.235048
0.200506
0.236415
0.236562
0.242560
0.215907
0.242138
0.244853
0.263790
0.265427
0.279889
0.255243
0.271484
0.262633
0.288479
0.262063
0.281679
0.266702
0.276287
0.319270
0.318785
0.284828
0.270284
0.303372
0.287375
0.300330
0.287665
0.315909
0.273828
0.306151
0.292437
0.318273
0.287780
0.289118
0.294402
0.279044
0.294392
0.263960
0.279201
0.275283
0.283020
0.286570
0.257847
0.258833
0.277475
0.283822
0.254774
0.230312
0.225413
0.245744
0.231739
0.225726
0.203772
0.233713
0.208553
0.197530
0.205255
0.206134
0.179366
0.155657
0.161639
0.179011
0.167709
0.150008
0.147325
0.166493
0.157604
0.107349
0.141606
0.122651
0.131815
0.104416
0.107477
0.117426
0.103626
0.121304
0.089356
0.073116
0.095058
0.101057
0.106380
0.067662
0.076990
0.079976
0.066455
0.080198
0.033709
0.068450
0.055792
0.056955
0.041829
0.027266
0.024520
0.037427
0.046135
0.048431
0.031624
0.044792
0.009676
0.027152
0.015845
0.026757
0.028413
0.040232
0.002881
0.011525
0.010990
-0.013582
-0.005286
0.014863
0.013077
0.018149
-0.006713
0.019686
0.003251
0.013322
0.021268
0.003193
0.005965
-0.003833
0.039330
0.015934
0.003445
0.018805
-0.015181
0.003603
0.001598
-0.012761
0.001992
0.004865
-0.001658
0.030995
0.016325
0.020634
-0.000869
-0.004848
-0.000132
-0.002144
0.029498
0.008459
0.016021
-0.018376
-0.006151
-0.010070
0.013143
0.004510
0.009790
-0.025971
-0.007534
-0.007800
-0.021065
-0.001680
-0.022969
-0.014515
0.021486
0.007087
-0.011669
0.010083
-0.022756
-0.007763
-0.008034
-0.000953
0.022296
0.000355
-0.024865
0.006331
0.011544
-0.004638
0.002429
-0.000139
-0.017021
-0.010542
0.009779
0.017574
0.002469
0.001354
0.019950
0.041271
-0.005356
0.018362
-0.004555
0.026085
0.015060
0.013531
-0.001255
0.000840
0.005441
0.015978
-0.016649
-0.018079
-0.005411
-0.017226
0.003858
0.003106
0.017039
-0.033075
0.008212
-0.000949
-0.003747
-0.019682
-0.010966
0.017407
-0.027706
-0.012003
0.002074
0.004707
0.000365
0.003544
0.014310
0.008831
0.029715
0.020355
0.015970
-0.004198
0.017333
-0.023246
0.008443
-0.002065
-0.004213
0.013973
-0.012893
-0.030028
0.039995
-0.003049
0.007326
-0.009605
-0.006761
0.027861
-0.010598
0.023996
0.022349
0.011746
-0.007385
-0.010645
-0.007281
0.018407
-0.005995
-0.004561
0.006384
0.013650
-0.020938
0.000658
-0.014746
0.014777
0.025042
0.007366
-0.000865
0.021264
0.021915
0.015182
-0.017747
0.013105
-0.023567
0.019772
0.003553
0.005692
-0.014276
0.011083
-0.028333
-0.036753
0.005084
0.013669
-0.000263
0.012426
0.004931
-0.001065
-0.009994
0.010207
0.015113
0.001599
-0.003966
-0.014205
0.026281
0.017791
0.000932
0.008098
-0.021543
0.009338
-0.017476
0.010636
-0.006616
0.014146
0.020073
-0.000143
-0.015248
-0.011189
-0.015368
0.021873
-0.025863
-0.000155
-0.017269
-0.003791
0.006685
0.008079
0.018282
0.001145
0.026273
-0.013858
-0.002803
-0.003117
0.024978
-0.015538
0.004296
-0.014925
0.005933
0.024116
0.011759
-0.026190
-0.020079
-0.019650
-0.020736
-0.014111
0.006044
-0.002881
-0.023688
-0.012807
-0.005310
0.009337
-0.028072
-0.016994
0.014851
0.030335
0.015657
-0.014997
0.017031
-0.031820
0.001174
-0.018574
-0.001094
-0.020708
0.008434
0.005650
-0.004575
0.014350
0.012735
0.001452
0.017719
0.011152
0.015970
-0.019537
0.001906
-0.001067
-0.001641
0.006198
0.028511
-0.017330
-0.009372
-0.012511
-0.010485
0.002591
0.008670
-0.005278
-0.023200
0.010640
0.016552
-0.027460
0.004033
-0.018231
0.012000
0.018330
-0.014610
0.005281
-0.009454
0.020303
-0.033940
0.000069
0.016421
-0.008154
-0.008451
0.000438
-0.012833
0.015068
0.019381
0.028338
0.009905
-0.004661
0.018593
0.009124
-0.015951
-0.007118
-0.011842
0.010002
-0.020478
0.016178
-0.023950
0.007450
-0.001797
-0.012816
-0.017477
-0.006389
0.001769
0.001509
-0.016186
0.009265
0.010172
-0.001382
-0.013928
0.010721
-0.001893
0.005192
0.009221
0.015986
-0.010876
-0.027454
0.007700
0.008096
0.025493
0.007929
-0.001745
0.030894
0.028890
0.007304
0.001048
0.007154
-0.003281
0.024625
0.011744
0.021907
-0.011365
-0.030832
0.018228
-0.000106
0.043550
0.009974
-0.000382
0.020492
-0.029273
0.015999
-0.012472
-0.002346
-0.051379
0.008249
-0.024573
0.010748
-0.018860
0.028396
-0.002245
0.041168
-0.028140
0.011314
-0.009463
-0.025765
0.018897
0.027403
0.025618
-0.006053
-0.031698
0.013507
-0.006531
0.003858
0.008753
0.015942
0.009338
-0.004067
-0.002931
-0.009260
