0.018935
0.020078
0.014334
0.007147
0.041470
0.006761
0.004163
0.012341
-0.025402
0.007586
-0.007770
0.031348
0.001984
0.024361
0.043183
0.038199
0.043103
0.079787
0.052783
0.064522
0.069477
0.097002
0.074508
0.119740
0.110081
0.105561
0.094672
0.122730
0.145744
0.146550
0.160440
0.151477
0.115627
0.158796
0.153825
0.152472
0.136019
0.128390
0.111341
0.109011
0.074691
0.086914
0.064899
0.075524
0.101537
0.081983
0.042926
0.062815
0.021371
0.031225
0.040608
0.025133
0.025550
0.016103
-0.001504
0.021621
0.005477
-0.004027
-0.019517
-0.025239
-0.015116
-0.026367
-0.036758
-0.036762
-0.065349
-0.032699
-0.056392
-0.027843
-0.019495
0.053202
0.101554
0.159294
0.240897
0.388926
0.491594
0.623912
0.737059
0.835009
0.929003
0.936625
0.964855
0.916404
0.862439
0.753357
0.629462
0.469154
0.370407
0.217657
0.125926
-0.008886
-0.073106
-0.123278
-0.147403
-0.109411
-0.140595
-0.110344
-0.109423
-0.079210
-0.039257
-0.030660
0.031897
0.048861
0.044339
0.048524
0.087140
0.048640
0.076900
0.101233
0.071028
0.084426
0.099994
0.118224
0.108100
0.131566
0.118971
0.136550
0.102961
0.131314
0.154678
0.122680
0.146820
0.164702
0.170533
0.182939
0.183061
0.198434
0.177128
0.212670
0.193357
0.222311
0.206868
0.229451
0.208589
0.246407
0.242409
0.235519
0.242954
0.245736
0.235234
0.270183
0.260797
0.288147
0.283807
0.300845
0.274935
0.297893
0.290851
0.289066
0.298147
0.321998
0.290657
0.288640
0.297206
0.289652
0.313310
0.282000
0.290730
0.304567
0.267001
0.306710
0.313348
0.281204
0.304692
0.263533
0.303890
0.276741
0.287711
0.269607
0.284976
0.274980
0.251329
0.286393
0.240307
0.262476
0.234047
0.272795
0.299911
0.228054
0.228272
0.234769
0.232314
0.203879
0.215232
0.223412
0.219129
0.190402
0.179497
0.194014
0.189729
0.208278
0.208807
0.167990
0.152406
0.158275
0.155465
0.133740
0.146763
0.157485
0.123860
0.127914
0.115126
0.108936
0.120519
0.129681
0.106329
0.075524
0.080139
0.113641
0.088349
0.095253
0.005810
0.014836
0.019185
0.011322
-0.015690
-0.007169
0.012993
-0.003374
-0.008804
0.021048
0.023752
0.001584
0.015664
0.021165
0.032936
0.011148
0.044306
0.063097
0.055939
0.055672
0.094952
0.091467
0.086779
0.109788
0.107610
0.106447
0.119211
0.112164
0.153071
0.155137
0.177777
0.125623
0.152224
0.134657
0.178276
0.124111
0.129191
0.119653
0.125088
0.102769
0.106399
0.089957
0.065984
0.104443
0.073969
0.041946
0.066427
0.055341
0.041331
0.053088
0.035828
0.021468
0.025241
-0.009381
-0.002020
0.025249
0.031024
0.008327
-0.031359
-0.007003
-0.017749
-0.038951
-0.037327
-0.028446
-0.064360
-0.067570
-0.062241
-0.016512
-0.002643
0.013253
0.098561
0.177157
0.261146
0.403363
0.500525
0.621255
0.737257
0.825935
0.929265
0.968721
0.969846
0.931097
0.859115
0.772678
0.658480
0.532053
0.369828
0.233557
0.106515
0.022663
-0.053152
-0.121855
-0.135551
-0.140590
-0.112605
-0.107237
-0.085354
-0.047478
-0.048673
0.026238
0.032929
0.014713
0.065187
0.031214
0.081636
0.073098
0.085395
0.096097
0.110458
0.089746
0.117741
0.087086
0.120302
0.145254
0.121496
0.115488
0.158999
0.164692
0.144849
0.137056
0.159446
0.145135
0.172395
0.156219
0.190636
0.184343
0.193562
0.177785
0.196210
0.226069
0.186642
0.204345
0.223935
0.228710
0.259994
0.239965
0.230647
0.220973
0.254759
0.270088
0.251704
0.221918
0.262974
0.273353
0.277691
0.257271
0.295581
0.270226
0.294941
0.275089
0.286749
0.308378
0.272121
0.315712
0.306638
0.325771
0.311169
0.308686
0.306338
0.292774
0.302645
0.297469
0.293126
0.335468
0.301823
0.280090
0.284329
0.276218
0.252383
0.288863
0.279542
0.262401
0.252324
0.283771
0.250026
0.248310
0.270342
0.221763
0.265407
0.259101
0.219019
0.223241
0.242253
0.207272
0.223087
0.199219
0.222935
0.189567
0.181902
0.162585
0.171408
0.153572
0.162488
0.158393
0.125538
0.155663
0.147485
0.127661
0.147202
0.115723
0.110199
0.125715
0.110146
0.118517
0.094909
0.116264
0.129338
0.086043
0.105886
0.089442
0.005784
0.006093
0.035051
-0.000161
-0.000542
-0.007421
-0.016799
0.022122
0.009575
-0.012935
0.008151
0.018733
-0.002539
0.029611
0.019082
0.023857
0.034994
0.048980
0.047577
0.079193
0.071170
0.083121
0.112388
0.090931
0.090662
0.147698
0.113949
0.100149
0.146012
0.133266
0.148785
0.181298
0.161882
0.136304
0.138936
0.176158
0.158446
0.137269
0.113848
0.121272
0.111839
0.052478
0.076370
0.064613
0.091586
0.078406
0.058424
0.051050
0.034208
0.049528
0.040104
0.025921
0.019931
-0.001380
0.041602
0.015508
-0.017193
0.026025
-0.032350
0.001774
-0.035507
-0.010320
-0.008211
-0.030876
-0.023668
-0.051891
-0.034176
-0.022183
-0.021966
0.025976
0.126584
0.170785
0.244809
0.371959
0.500547
0.612605
0.734659
0.845794
0.945222
0.982070
0.990265
0.922686
0.837644
0.767765
0.625081
0.480776
0.379351
0.240151
0.128121
0.007712
-0.046517
-0.098611
-0.116488
-0.150089
-0.130573
-0.113863
-0.091913
-0.072637
-0.022605
-0.017128
0.019824
0.036324
0.058655
0.049700
0.050643
0.089839
0.080688
0.098787
0.112937
0.091415
0.098872
0.095582
0.126050
0.109241
0.136458
0.141721
0.130227
0.116782
0.152895
0.161975
0.169251
0.137622
0.145521
0.171323
0.181543
0.170727
0.183475
0.203651
0.193326
0.216125
0.207223
0.224966
0.225785
0.209849
0.211499
0.259542
0.229788
0.225840
0.235816
0.251245
0.287029
0.263703
0.266618
0.294115
0.301233
0.280325
0.271024
0.297971
0.289105
0.291469
0.298389
0.293312
0.299494
0.312887
0.343947
0.298556
0.316495
0.289807
0.299624
0.275080
0.283255
0.275270
0.278199
0.285267
0.270501
0.294715
0.274909
0.297598
0.287826
0.293820
0.283696
0.284086
0.259745
0.271836
0.278557
0.253081
0.226813
0.265743
0.244609
0.226700
0.230095
0.234575
0.221047
0.217766
0.196947
0.205272
0.207625
0.189301
0.183940
0.183849
0.167900
0.177968
0.165567
0.163630
0.151285
0.124840
0.113510
0.189960
0.122361
0.134296
0.128121
0.119417
0.116025
0.097719
0.101890
0.072715
0.076113
0.093408
0.072989
0.087328
-0.018573
0.009450
0.005194
-0.002864
0.025640
0.008031
0.013839
-0.000309
0.003501
-0.011444
0.017763
-0.014745
0.029980
0.047840
0.052657
0.087776
0.031419
0.079057
0.045387
0.090393
0.069879
0.084855
0.090765
0.127733
0.125003
0.131169
0.147623
0.161404
0.124409
0.150425
0.131068
0.143889
0.173380
0.173054
0.140796
0.120845
0.133115
0.123994
0.146822
0.113313
0.106316
0.100644
0.080184
0.066816
0.062877
0.053623
0.042237
0.043669
0.031594
0.044398
0.020943
0.037319
0.022908
0.020756
0.005673
0.018287
-0.030301
0.012828
0.001808
-0.015771
-0.023924
0.005983
-0.029664
-0.031575
-0.050644
-0.045952
-0.062509
-0.015755
-0.020212
0.054871
0.087213
0.171800
0.261279
0.354681
0.483257
0.595535
0.719563
0.831288
0.900870
0.966491
0.963169
0.950039
0.868778
0.747889
0.631747
0.498895
0.374138
0.244735
0.139670
0.033771
-0.062548
-0.104598
-0.125321
-0.120146
-0.118465
-0.102503
-0.088948
-0.072539
-0.015513
-0.012592
0.031853
0.026368
0.070986
0.058644
0.066907
0.089279
0.076232
0.068098
0.078726
0.094986
0.103821
0.081852
0.108390
0.118616
0.125026
0.132953
0.116864
0.124031
0.136777
0.146026
0.142820
0.173194
0.177776
0.172387
0.149627
0.171092
0.173703
0.212519
0.210105
0.239107
0.204041
0.203918
0.227908
0.215017
0.246595
0.243821
0.247917
0.245696
0.244760
0.271092
0.280680
0.278894
0.270849
0.267716
0.255226
0.271739
0.276135
0.270181
0.272948
0.290606
0.271560
0.297902
0.282776
0.286396
0.291567
0.297919
0.315455
0.290817
0.300414
0.283686
0.277540
0.297172
0.287201
0.255582
0.288222
0.295826
0.310206
0.288454
0.287197
0.280731
0.272429
0.260147
0.289319
0.276130
0.234494
0.253069
0.266183
0.250709
0.252688
0.216895
0.237533
0.230739
0.203379
0.190388
0.205315
0.214331
0.213049
0.199636
0.181150
0.183586
0.197213
0.210498
0.146000
0.154769
0.143574
0.158201
0.115977
0.166652
0.147060
0.159848
0.129250
0.122889
0.140778
0.089967
0.112720
0.113568
0.108560
0.114803
0.098600
0.098145
0.008423
0.003011
0.033042
-0.017746
0.000220
0.014177
-0.000384
0.005034
0.006625
0.010097
-0.001260
0.008200
0.011425
-0.003345
0.049734
0.024594
0.033156
0.041224
0.033630
0.091895
0.084945
0.086147
0.065584
0.096168
0.111096
0.127677
0.121177
0.124420
0.143357
0.166626
0.151746
0.138313
0.145782
0.182027
0.146315
0.132557
0.140628
0.127755
0.128764
0.137974
0.117439
0.074446
0.100855
0.087831
0.066166
0.065619
0.071085
0.041744
0.019494
0.021259
0.035320
0.028058
0.026065
-0.024974
0.016765
0.034092
0.013876
0.001030
-0.014359
0.028754
-0.012294
-0.027194
-0.013434
-0.042669
-0.055482
-0.063218
-0.043605
-0.044002
0.012962
0.017818
0.099626
0.172476
0.273628
0.370590
0.503413
0.641945
0.746432
0.843890
0.896078
0.968658
0.931415
0.926648
0.864382
0.773518
0.654404
0.507137
0.347379
0.230927
0.100052
0.020134
-0.068751
-0.119918
-0.110134
-0.174752
-0.122508
-0.104132
-0.073348
-0.043999
-0.030191
-0.026545
0.010837
0.023436
0.036439
0.043999
0.074146
0.066291
0.060850
0.108346
0.089303
0.112945
0.095458
0.109624
0.106508
0.119987
0.103374
0.104144
0.127576
0.149065
0.141097
0.140517
0.162055
0.153160
0.159133
0.168895
0.160352
0.179592
0.171107
0.213894
0.188739
0.212596
0.197452
0.199953
0.210678
0.236453
0.234122
0.240172
0.266767
0.257761
0.234969
0.287510
0.252319
0.254430
0.246618
0.274275
0.273772
0.298028
0.294962
0.299916
0.306586
0.260806
0.282861
0.262130
0.296706
0.290364
0.307535
0.292080
0.283552
0.299752
0.293786
0.291824
0.292820
0.299044
0.295369
0.295043
0.291028
0.287501
0.264147
0.280457
0.294454
0.268778
0.272221
0.293547
0.276023
0.274941
0.287684
0.283140
0.237970
0.241173
0.234827
0.242688
0.224189
0.238501
0.251325
0.226591
0.188298
0.174442
0.188364
0.185900
0.171183
0.172666
0.173423
0.165186
0.176089
0.155696
0.155464
0.140237
0.151239
0.134059
0.143619
0.125705
0.132377
0.128112
0.108713
0.127560
0.074203
0.099723
0.092170
0.092232
0.098403
0.062992
0.010332
-0.007321
-0.023057
0.012160
-0.023719
0.024729
0.016409
-0.008535
0.003972
0.009142
0.024382
0.004407
0.022894
0.038235
0.039387
0.017580
0.046542
0.062497
0.067423
0.061354
0.087889
0.067911
0.089838
0.103098
0.113170
0.121103
0.129360
0.119190
0.138439
0.155042
0.139833
0.163201
0.139249
0.130650
0.166374
0.158171
0.125953
0.137656
0.147564
0.140295
0.112630
0.080843
0.111888
0.076300
0.076532
0.083148
0.070945
0.078264
0.046311
0.013313
0.046628
0.008874
0.024128
0.028334
0.011370
0.025577
0.018061
-0.022948
0.023017
0.009730
-0.000607
-0.010046
-0.041813
-0.027027
-0.043961
-0.062050
-0.084391
-0.033003
-0.005069
0.031904
0.069065
0.144095
0.288082
0.364104
0.482179
0.587491
0.739763
0.866640
0.923700
0.989074
0.979152
0.919137
0.831247
0.757174
0.646995
0.515817
0.324303
0.229273
0.093800
-0.002167
-0.070647
-0.100808
-0.124803
-0.136950
-0.118573
-0.100782
-0.112408
-0.061307
-0.069809
0.009070
0.012947
0.043001
0.048216
0.042190
0.072227
0.067991
0.109155
0.107008
0.097505
0.089543
0.102532
0.135051
0.078597
0.099041
0.112405
0.112319
0.126291
0.137132
0.146181
0.132635
0.152532
0.181417
0.176613
0.165919
0.169744
0.179513
0.182346
0.198813
0.206940
0.222082
0.205058
0.222025
0.248285
0.224053
0.229550
0.227019
0.273284
0.232086
0.230176
0.247997
0.275739
0.256911
0.278111
0.263579
0.277247
0.324690
0.291979
0.276141
0.260342
0.274236
0.308551
0.298437
0.302583
0.304803
0.273580
0.308381
0.322514
0.287409
0.316079
0.291348
0.273438
0.299566
0.285687
0.275737
0.281814
0.320416
0.294033
0.309363
0.265490
0.281301
0.277604
0.283976
0.248541
0.259020
0.240095
0.271961
0.272696
0.249637
0.239922
0.226586
0.234915
0.215322
0.215756
0.193076
0.195082
0.201356
0.195310
0.187864
0.198593
0.168675
0.173749
0.150237
0.156830
0.155559
0.171734
0.166187
0.150797
0.130427
0.154163
0.101246
0.116035
0.116212
0.111549
0.090780
0.113803
0.099442
0.077659
0.125046
0.042038
0.063278
0.010375
0.004475
0.025081
-0.007011
0.016536
0.003729
0.018305
0.001332
0.017781
0.032294
0.002662
-0.000498
0.016160
0.030135
0.024075
0.024753
0.045772
0.075138
0.049040
0.060876
0.045822
0.072601
0.064634
0.087518
0.131066
0.124264
0.120130
0.145372
0.136563
0.155064
0.139010
0.141980
0.160064
0.148453
0.146585
0.123619
0.162874
0.137583
0.115214
0.109050
0.109338
0.104867
0.078043
0.077208
0.062037
0.073754
0.076914
0.044957
0.036051
0.060722
0.020953
0.006791
-0.016394
0.007754
0.020807
-0.020700
-0.000275
-0.005169
-0.004833
0.005335
0.010579
-0.036080
-0.062412
-0.046048
-0.059500
-0.022951
-0.019152
-0.016867
-0.007270
0.040093
0.100172
0.151288
0.288290
0.375576
0.486021
0.624127
0.730714
0.872033
0.937465
0.967183
0.952167
0.921343
0.863523
0.743818
0.631806
0.511417
0.353665
0.238227
0.091517
0.002973
-0.046173
-0.096787
-0.144668
-0.133848
-0.134305
-0.094208
-0.073907
-0.064645
-0.031821
-0.002643
0.008599
0.018295
0.049323
0.060015
0.047711
0.062161
0.073942
0.082155
0.084172
0.117837
0.073006
0.105130
0.083760
0.102763
0.130425
0.155606
0.142158
0.149259
0.133856
0.155587
0.172883
0.161946
0.142162
0.192941
0.188488
0.161013
0.182738
0.200262
0.212309
0.211722
0.225626
0.217724
0.239840
0.246606
0.221582
0.235226
0.232024
0.259724
0.234389
0.275813
0.244476
0.256271
0.270736
0.267651
0.264207
0.313486
0.265508
0.298393
0.294503
0.314863
0.290807
0.289466
0.292177
0.274444
0.318312
0.292189
0.294903
0.313397
0.276060
0.282806
0.301203
0.288792
0.307061
0.293358
0.316445
0.275368
0.283004
0.276989
0.280980
0.276523
0.242768
0.260153
0.270235
0.269887
0.258895
0.267981
0.268948
0.246086
0.206220
0.252002
0.232153
0.241359
0.242788
0.224074
0.197925
0.207797
0.210042
0.184003
0.163744
0.166642
0.168073
0.149668
0.158471
0.185216
0.136723
0.151561
0.146179
0.127230
0.119200
0.134757
0.137106
0.070718
0.099984
0.134712
0.119299
0.104629
0.092082
0.110214
0.083139
0.089140
0.016674
-0.008617
0.021662
-0.004875
-0.017825
0.019740
0.051223
0.000871
0.026134
-0.009582
0.017844
0.018155
0.053204
0.026431
0.010804
0.051619
0.000418
0.046669
0.060474
0.068925
0.074093
0.080491
0.102364
0.111294
0.132680
0.108884
0.124645
0.115719
0.140471
0.155506
0.129638
0.140179
0.137932
0.148586
0.140085
0.150850
0.128612
0.109637
0.140494
0.114373
0.134234
0.108959
0.078161
0.086101
0.071188
0.070318
0.061555
0.052756
0.034031
0.040585
0.048754
0.015349
0.010130
0.045505
0.036050
0.014273
-0.013164
-0.040407
-0.009844
-0.026824
-0.029163
-0.032194
-0.035629
-0.057224
-0.027187
-0.018478
-0.057969
-0.032845
-0.005918
0.010225
0.068820
0.177770
0.254986
0.379833
0.464725
0.634981
0.735499
0.826728
0.924955
0.978548
0.953195
0.921140
0.841786
0.770033
0.624515
0.480900
0.370705
0.209101
0.100415
0.046158
-0.041603
-0.099832
-0.125512
-0.131809
-0.143319
-0.114333
-0.106289
-0.049691
-0.030270
0.011310
-0.011152
0.033862
0.050705
0.064980
0.103435
0.042815
0.091092
0.076453
0.105621
0.101470
0.112730
0.111357
0.104616
0.095251
0.121840
0.114920
0.137520
0.164927
0.144076
0.159492
0.153080
0.142761
0.156692
0.176595
0.188672
0.175729
0.200275
0.208814
0.204446
0.203199
0.206538
0.235185
0.233447
0.239656
0.228085
0.231496
0.215285
0.253431
0.243333
0.236424
0.255387
0.234246
0.269691
0.275048
0.295258
0.270512
0.274250
0.293276
0.302826
0.324344
0.282916
0.312462
0.332061
0.293944
0.297319
0.302146
0.290745
0.292071
0.305288
0.285523
0.280981
0.275456
0.297176
0.298230
0.303603
0.269552
0.285794
0.293869
0.272674
0.280586
0.254122
0.258675
0.260388
0.235571
0.276111
0.266773
0.264285
0.244142
0.245698
0.242655
0.269476
0.241586
0.206215
0.205606
0.205304
0.191478
0.192788
0.209013
0.174935
0.172548
0.177445
0.147596
0.154524
0.144192
0.149171
0.144738
0.143741
0.124671
0.124991
0.156936
0.109767
0.126206
0.125268
0.101918
0.116550
0.112026
0.080730
0.097729
0.100703
0.090784
-0.007469
0.005737
0.009256
0.002204
-0.008625
0.030282
-0.004844
0.007448
0.010717
0.023647
0.009854
0.024444
0.023371
0.034817
0.018054
0.028722
0.033081
0.036424
0.077125
0.050192
0.097319
0.079246
0.095058
0.107223
0.110150
0.085436
0.125962
0.123890
0.136679
0.161099
0.153968
0.143404
0.137526
0.158387
0.153524
0.169484
0.141352
0.113534
0.138708
0.100623
0.088995
0.096598
0.089654
0.084651
0.073034
0.069010
0.058456
0.054044
0.030274
0.022890
0.051676
0.018695
0.001143
0.022797
0.020658
-0.000106
0.019788
0.005640
0.014790
-0.031828
-0.017078
-0.030547
-0.035251
-0.024198
-0.044496
-0.025295
-0.055210
-0.023083
-0.016003
0.037595
0.124970
0.133874
0.232930
0.364135
0.496493
0.618367
0.745045
0.830029
0.908195
0.960737
0.968058
0.913806
0.868490
0.765521
0.630228
0.513456
0.351653
0.231583
0.092242
0.037763
-0.032121
-0.100936
-0.138375
-0.162496
-0.118321
-0.126863
-0.096171
-0.055661
-0.055031
-0.002926
-0.000821
0.031538
0.024165
0.051563
0.047612
0.072077
0.075830
0.072411
0.070558
0.094141
0.111764
0.104915
0.101799
0.144144
0.134958
0.141509
0.123656
0.131781
0.145083
0.164250
0.150031
0.145167
0.186195
0.160926
0.168302
0.181144
0.178531
0.187036
0.198844
0.189021
0.210347
0.208649
0.237938
0.249328
0.229899
0.221835
0.219779
0.236813
0.242759
0.246022
0.271557
0.244085
0.257212
0.266072
0.286204
0.257947
0.283625
0.292330
0.297365
0.311657
0.269953
0.332628
0.311956
0.322357
0.310575
0.295295
0.282857
0.305969
0.321079
0.293193
0.287526
0.301426
0.297311
0.309073
0.294534
0.289351
0.281991
0.269789
0.271467
0.270132
0.259584
0.264241
0.267054
0.213812
0.269535
0.280564
0.262218
0.231700
0.252457
0.210350
0.210931
0.222997
0.235954
0.217862
0.212927
0.214723
0.196669
0.208032
0.182250
0.176218
0.186960
0.178483
0.128026
0.167789
0.141888
0.157994
0.144795
0.145573
0.115159
0.112253
0.117176
0.127956
0.089261
0.099820
0.085107
0.099014
0.106415
0.108086
0.091790
0.087737
0.031525
-0.002068
-0.042294
-0.012081
0.009325
0.006982
0.008591
0.009764
0.016980
0.038967
0.022550
0.015380
0.042025
0.038502
0.021731
0.026809
0.041505
0.034259
0.041339
0.073249
0.077372
0.092603
0.085302
0.093990
0.093948
0.132393
0.124009
0.113262
0.144659
0.153485
0.128520
0.180707
0.147802
0.153270
0.138307
0.141394
0.134907
0.113718
0.128497
0.108167
0.093993
0.083195
0.073416
0.093381
0.069907
0.058802
0.020492
0.030578
0.054546
0.042663
0.033637
0.030755
0.009458
0.020451
0.032276
0.041375
0.007160
0.007158
-0.014777
-0.017763
-0.007396
-0.003012
-0.043457
-0.033697
-0.048273
-0.039247
-0.052453
-0.049527
-0.000697
0.039633
0.092216
0.153920
0.258962
0.360372
0.482899
0.606938
0.738394
0.830222
0.925909
0.960467
0.928902
0.933135
0.886988
0.737229
0.600419
0.507873
0.341943
0.216693
0.092248
0.010666
-0.052847
-0.121764
-0.108909
-0.133080
-0.149393
-0.104299
-0.064192
-0.059009
-0.039454
-0.013258
0.009753
0.047326
0.020838
0.039326
0.053097
0.048196
0.082764
0.066031
0.099967
0.088295
0.093400
0.127781
0.110041
0.114125
0.130437
0.114652
0.125974
0.122679
0.142403
0.146623
0.151688
0.162216
0.179306
0.153368
0.193473
0.188657
0.168704
0.198528
0.193061
0.208730
0.213201
0.203012
0.209710
0.214241
0.232884
0.243278
0.228879
0.246883
0.238394
0.267682
0.256467
0.274831
0.268729
0.284472
0.293663
0.289321
0.266764
0.276779
0.284258
0.293602
0.310191
0.294149
0.290284
0.301621
0.292772
0.300409
0.320331
0.288290
0.284206
0.300888
0.305615
0.278337
0.290146
0.320943
0.283180
0.295549
0.281088
0.275790
0.268692
0.245906
0.270391
0.268588
0.274286
0.287515
0.262463
0.259836
0.248217
0.225324
0.253998
0.260902
0.257907
0.221950
0.240674
0.198387
0.203349
0.196948
0.190061
0.199476
0.198092
0.185159
0.196985
0.201959
0.186520
0.164272
0.135706
0.144428
0.152943
0.142266
0.130660
0.106001
0.107041
0.098667
0.136940
0.088453
0.103711
0.066571
0.125590
0.099091
0.098245
0.047533
-0.006423
-0.003865
-0.013009
0.001345
-0.008478
-0.004273
0.003443
-0.015589
-0.002615
0.003541
0.009936
-0.008547
0.014195
0.040752
0.027467
0.032407
0.034241
0.055117
0.037943
0.034780
0.055278
0.110022
0.107372
0.107443
0.103571
0.085649
0.123496
0.144068
0.120501
0.160183
0.173875
0.144733
0.142979
0.138415
0.152059
0.110232
0.129520
0.131141
0.145262
0.127451
0.109223
0.105402
0.085193
0.073059
0.072552
0.060716
0.063146
0.053996
0.056511
0.043162
0.023281
0.030450
0.026335
0.001846
0.009944
-0.003635
-0.014811
-0.014295
-0.001756
-0.002894
-0.015451
-0.030228
-0.026560
-0.048180
-0.074506
-0.057480
-0.052784
-0.034600
0.016444
0.040315
0.096720
0.204128
0.275973
0.407329
0.470538
0.618045
0.740326
0.841838
0.923214
0.972774
0.970919
0.937068
0.877293
0.780218
0.660404
0.490129
0.345226
0.257045
0.098737
-0.017541
-0.061993
-0.116935
-0.151427
-0.120288
-0.107034
-0.092996
-0.077999
-0.039385
-0.053115
0.004811
0.001632
0.018013
0.047695
0.030482
0.085083
0.074346
0.085419
0.102810
0.105816
0.120376
0.114975
0.106399
0.106478
0.137788
0.104281
0.105917
0.110871
0.130924
0.139413
0.148102
0.152745
0.157068
0.173175
0.156869
0.190272
0.175859
0.174659
0.177630
0.161309
0.164306
0.215215
0.234325
0.226610
0.216254
0.229000
0.269533
0.215997
0.259168
0.249478
0.250303
0.256253
0.243908
0.259832
0.277553
0.292864
0.265546
0.274054
0.315916
0.289350
0.276905
0.292538
0.295606
0.299849
0.300877
0.290998
0.291868
0.277726
0.287390
0.312246
0.320391
0.310700
0.284850
0.300559
0.261851
0.299559
0.270727
0.311230
0.290169
0.292148
0.274525
0.278268
0.266260
0.257083
0.274388
0.273848
0.261236
0.257846
0.222216
0.213985
0.235119
0.232570
0.230120
0.212984
0.236029
0.205527
0.205237
0.195016
0.205323
0.168408
0.191245
0.164215
0.202130
0.178876
0.148791
0.154608
0.167580
0.104935
0.142412
0.128418
0.148611
0.123752
0.119309
0.095910
0.111787
0.105957
0.092412
0.110384
0.085952
0.087462
0.090530
0.016958
0.014525
0.026849
-0.008498
-0.012238
0.025179
0.020791
-0.000101
0.007168
0.011920
0.019787
-0.004983
0.019861
0.028797
0.044340
0.059668
0.038063
0.051588
0.063886
0.064394
0.064504
0.071093
0.116642
0.100087
0.087485
0.127097
0.133141
0.126286
0.159053
0.120072
0.154481
0.137974
0.141451
0.163675
0.157660
0.139919
0.133285
0.135594
0.134956
0.100318
0.110000
0.089446
0.103500
0.077448
0.071750
0.082922
0.082391
0.051452
0.044864
0.051204
0.015938
0.016146
0.025817
0.028192
0.022608
0.014594
0.013814
-0.008940
0.001496
-0.016615
-0.020627
-0.019095
-0.012474
-0.024694
-0.034677
-0.022274
-0.060753
-0.031927
-0.028048
0.049674
0.108395
0.152889
0.257878
0.372790
0.505398
0.626752
0.739130
0.870350
0.934600
0.945051
0.974610
0.893663
0.880544
0.760419
0.630342
0.499297
0.347244
0.215118
0.109071
0.034525
-0.068555
-0.102341
-0.124292
-0.118077
-0.147623
-0.091797
-0.080707
-0.063960
-0.035124
-0.006418
0.007815
0.016305
0.031409
0.035533
0.069814
0.077947
0.096947
0.105518
0.076355
0.105943
0.100011
0.073441
0.097005
0.094000
0.117393
0.101564
0.124293
0.125128
0.121214
0.125920
0.152904
0.154931
0.181107
0.197400
0.167847
0.187680
0.205339
0.169041
0.187290
0.230382
0.201905
0.204075
0.231481
0.218781
0.227542
0.213812
0.266238
0.228350
0.264707
0.256591
0.268026
0.269540
0.258562
0.284970
0.291836
0.274450
0.282047
0.282036
0.275591
0.290608
0.276811
0.326779
0.328547
0.307960
0.296208
0.295131
0.308232
0.314181
0.298246
0.305286
0.286301
0.301577
0.289674
0.311089
0.277427
0.301102
0.287636
0.273905
0.274624
0.303376
0.279627
0.260935
0.264518
0.260095
0.242299
0.266403
0.225814
0.245284
0.230159
0.220978
0.220335
0.206240
0.240785
0.218850
0.203541
0.186352
0.195149
0.191235
0.197434
0.193256
0.193113
0.157330
0.165463
0.174780
0.168351
0.150595
0.147140
0.132161
0.136026
0.133996
0.113546
0.110211
0.140134
0.108757
0.084722
0.088374
0.083695
0.102908
0.080356
0.084521
-0.002663
0.014550
-0.014750
0.017658
0.003117
0.000238
0.000726
0.027505
0.003027
0.030945
0.020021
0.014069
0.012566
0.035162
0.034543
0.018027
0.072735
0.068854
0.029608
0.039326
0.094822
0.075394
0.100410
0.083440
0.105277
0.133582
0.140011
0.117521
0.140654
0.142321
0.158993
0.148430
0.142735
0.146308
0.166617
0.131849
0.149552
0.125946
0.137256
0.116005
0.104007
0.102942
0.096486
0.071314
0.069806
0.040408
0.041631
0.075607
0.042978
0.042957
0.041355
0.022976
-0.002411
-0.035225
-0.004814
0.005826
0.006962
-0.010285
-0.016830
-0.010315
-0.035837
-0.011359
-0.024723
-0.031453
-0.032517
-0.058867
-0.043530
-0.031977
-0.030378
0.041326
0.087692
0.174955
0.255837
0.400262
0.499584
0.589176
0.721879
0.866490
0.936933
0.980533
0.950424
0.942515
0.857751
0.757767
0.618626
0.489864
0.359263
0.240870
0.097726
0.004749
-0.074817
-0.101888
-0.113382
-0.142390
-0.129724
-0.108118
-0.058775
-0.070298
-0.030485
-0.005977
0.021842
0.018744
0.049350
0.072113
0.048510
0.082486
0.078895
0.081077
0.096071
0.107706
0.097766
0.126677
0.090314
0.133207
0.119859
0.113004
0.127344
0.133174
0.140865
0.152019
0.160044
0.176130
0.146481
0.174571
0.176036
0.197123
0.169555
0.169613
0.211309
0.207437
0.201046
0.216677
0.219213
0.222500
0.224810
0.221478
0.252064
0.236816
0.238896
0.251889
0.272626
0.259124
0.249990
0.282048
0.271388
0.287930
0.271807
0.292706
0.281426
0.268459
0.275747
0.295548
0.289955
0.299224
0.301045
0.310986
0.308188
0.312472
0.309608
0.277329
0.294978
0.299477
0.319175
0.313547
0.314723
0.280223
0.287978
0.259799
0.276649
0.284072
0.284314
0.274033
0.263019
0.276197
0.277834
0.252270
0.272350
0.268976
0.232368
0.235375
0.229904
0.213047
0.244957
0.225476
0.234597
0.217969
0.185915
0.209233
0.170532
0.177133
0.152473
0.157210
0.176931
0.137218
0.147116
0.152947
0.122409
0.135757
0.138050
0.125386
0.124487
0.127870
0.146564
0.127737
0.063150
0.115989
0.096600
0.103808
0.070683
0.098646
-0.004036
-0.010484
0.004240
0.024611
-0.002106
0.010720
0.013557
-0.014056
0.030403
-0.011287
0.034205
0.013399
0.022442
0.016432
0.025016
0.032292
0.008857
0.071735
0.093071
0.068313
0.066012
0.082966
0.078116
0.090165
0.110914
0.137038
0.127388
0.136227
0.143864
0.134072
0.160134
0.143731
0.143991
0.133026
0.158009
0.130729
0.140846
0.144240
0.110352
0.130389
0.103461
0.074849
0.090138
0.083184
0.068345
0.048447
0.069636
0.060082
0.052728
0.041778
0.025531
0.016865
0.011120
0.010940
-0.013216
0.026307
-0.000811
-0.009969
0.008230
-0.008144
-0.012846
-0.039301
-0.022071
-0.053300
-0.028337
-0.041817
-0.035859
-0.036636
-0.011076
0.025612
0.096938
0.141725
0.261444
0.371774
0.503282
0.622511
0.730763
0.836915
0.939587
0.971275
0.977502
0.949045
0.840403
0.740954
0.646409
0.480541
0.359263
0.222068
0.136856
0.005963
-0.057644
-0.092452
-0.127368
-0.146443
-0.128066
-0.133860
-0.096578
-0.050321
-0.025341
-0.006296
0.056585
0.025675
0.069645
0.067028
0.070146
0.069931
0.061920
0.098064
0.089393
0.116945
0.085165
0.125637
0.111687
0.114419
0.124449
0.113939
0.119034
0.155035
0.149674
0.148489
0.159072
0.180435
0.168867
0.154489
0.172920
0.172332
0.166149
0.163391
0.208301
0.209938
0.216677
0.214588
0.232951
0.221975
0.236972
0.240973
0.290620
0.223186
0.263037
0.286628
0.264108
0.272251
0.258452
0.275982
0.264828
0.272421
0.305185
0.294452
0.331925
0.306563
0.301506
0.282549
0.297945
0.293244
0.288797
0.281588
0.316948
0.297688
0.299938
0.303068
0.291815
0.272482
0.265039
0.267541
0.269350
0.297499
0.280638
0.293118
0.295974
0.281490
0.287665
0.236568
0.248749
0.232605
0.264943
0.279837
0.251880
0.235716
0.225973
0.258262
0.249577
0.234680
0.225100
0.209197
0.196369
0.192112
0.226305
0.200264
0.167671
0.194563
0.204351
0.195191
0.144143
0.150011
0.138189
0.138138
0.135794
0.135067
0.138065
0.131245
0.132231
0.108867
0.119608
0.117163
0.082644
0.076081
0.114662
0.092268
0.081912
0.036639
0.014661
-0.000015
0.006192
-0.010072
-0.028434
-0.007427
0.009403
0.002213
0.005132
0.019318
0.017618
0.000035
0.044485
0.015445
0.022977
0.059474
0.061141
0.038871
0.071602
0.060597
0.059716
0.082229
0.092686
0.104185
0.120405
0.131687
0.137736
0.121465
0.126627
0.119772
0.151280
0.159533
0.150056
0.118246
0.136607
0.117218
0.141351
0.160185
0.142688
0.117699
0.111525
0.090461
0.113351
0.079720
0.065413
0.061869
0.059846
0.049942
0.033219
0.035000
0.048235
0.031385
0.019430
-0.000253
0.006581
0.017449
-0.012285
0.019455
-0.011685
-0.017680
-0.000705
-0.018894
-0.044427
-0.061247
-0.052292
-0.072226
-0.046564
0.000488
-0.009628
0.028269
0.081572
0.156704
0.272796
0.371962
0.484021
0.617409
0.734690
0.852234
0.903087
0.949633
0.978082
0.931681
0.842571
0.744982
0.633856
0.459011
0.324845
0.247118
0.122565
0.015954
-0.055525
-0.091075
-0.140398
-0.140731
-0.133725
-0.082845
-0.088403
-0.064213
-0.056122
0.011130
0.018932
0.004773
0.067361
0.073241
0.056234
0.083164
0.091476
0.072198
0.078891
0.098353
0.099676
0.104516
0.127896
0.113941
0.121472
0.123686
0.119965
0.117359
0.148516
0.145310
0.136904
0.171230
0.174170
0.169798
0.164497
0.162392
0.206827
0.206394
0.191902
0.197502
0.217440
0.213455
0.233951
0.209030
0.237191
0.222829
0.225253
0.262460
0.251732
0.262386
0.272912
0.255214
0.280688
0.290515
0.268372
0.284231
0.268710
0.275133
0.274218
0.290728
0.293206
0.281373
0.291865
0.264909
0.288428
0.313808
0.281764
0.295099
0.318423
0.293116
0.299631
0.309653
0.272729
0.309236
0.286906
0.275753
0.282199
0.287610
0.277116
0.258505
0.253748
0.291412
0.279609
0.267700
0.276310
0.250479
0.262209
0.276608
0.223518
0.253073
0.213575
0.224725
0.193887
0.203223
0.211048
0.220285
0.201248
0.187439
0.202416
0.180279
0.167641
0.172873
0.162072
0.167681
0.139242
0.148245
0.157730
0.145996
0.122637
0.145350
0.108275
0.117050
0.096683
0.104066
0.129241
0.089794
0.105098
0.069632
0.058432
0.084344
0.000382
-0.007536
0.005249
-0.004459
0.002963
-0.005260
-0.013205
-0.015397
0.001764
0.000453
0.028601
0.023310
0.021135
0.048187
0.016519
0.033530
0.059715
0.004607
0.067664
0.044634
0.079662
0.101321
0.091385
0.083970
0.134605
0.137480
0.127971
0.132057
0.180860
0.128735
0.158696
0.150434
0.127910
0.130415
0.154993
0.132058
0.147965
0.155674
0.118683
0.130623
0.121230
0.108403
0.096558
0.069804
0.102938
0.055284
0.070451
0.068293
0.048615
0.016551
0.013683
-0.019918
0.039487
0.026048
0.009628
0.010018
-0.007533
-0.017607
-0.018510
-0.024267
0.002108
-0.030464
-0.017993
-0.063174
-0.037552
-0.021655
-0.033938
-0.023122
-0.003115
0.036512
0.098865
0.144837
0.254717
0.377979
0.503635
0.600227
0.761031
0.830776
0.911074
0.982458
0.968125
0.934028
0.900828
0.759444
0.647363
0.504781
0.364541
0.223665
0.129691
0.020112
-0.068116
-0.111997
-0.123076
-0.158840
-0.135564
-0.099192
-0.062518
-0.062031
-0.028784
-0.011485
0.010897
0.037881
0.032628
0.080066
0.087130
0.086614
0.064058
0.090366
0.115297
0.102211
0.104053
0.087320
0.112436
0.120214
0.105099
0.120535
0.096681
0.144312
0.141470
0.137218
0.113981
0.159306
0.186425
0.204263
0.182528
0.167690
0.173659
0.193910
0.200797
0.211776
0.198110
0.190662
0.232236
0.189735
0.224121
0.240154
0.233567
0.252057
0.234076
0.274293
0.265153
0.230768
0.263435
0.282234
0.294305
0.274350
0.290923
0.286340
0.301702
0.279092
0.311421
0.286466
0.292244
0.275373
0.286085
0.305964
0.291163
0.287898
0.301905
0.292190
0.292210
0.291965
0.331213
0.290968
0.297035
0.291576
0.297398
0.291795
0.277635
0.268148
0.280327
0.253742
0.302762
0.283594
0.280391
0.261899
0.246416
0.269717
0.220471
0.226547
0.259096
0.230326
0.214458
0.202973
0.201267
0.202079
0.209039
0.167565
0.209986
0.192454
0.190273
0.193403
0.141968
0.166364
0.140438
0.126919
0.146417
0.154421
0.128122
0.143757
0.116222
0.125280
0.099867
0.125445
0.105016
0.112115
0.070771
0.091147
0.048702
0.097039
0.015860
-0.006885
-0.010532
-0.018660
-0.001784
-0.000054
-0.000664
0.019736
0.012627
0.018630
0.014198
0.012666
0.050515
0.009468
0.039183
0.067017
0.038543
0.046666
0.072855
0.042297
0.070384
0.075183
0.084307
0.108807
0.104531
0.116327
0.152840
0.118387
0.167129
0.161965
0.158630
0.154040
0.166463
0.156409
0.166618
0.147128
0.159257
0.143303
0.108907
0.129164
0.121861
0.133859
0.075578
0.079748
0.052495
0.071551
0.046933
0.040431
0.050722
0.024700
0.043136
0.027625
0.007112
0.025638
-0.012303
0.012830
-0.026437
0.018048
-0.016452
-0.019930
-0.030043
-0.034196
-0.005820
-0.033889
-0.045933
-0.050682
-0.025621
-0.044184
-0.004145
0.064681
0.080676
0.171440
0.274949
0.382692
0.496443
0.602030
0.713881
0.821287
0.933823
0.936139
0.963146
0.937189
0.850474
0.773980
0.638342
0.474762
0.377875
0.238577
0.123580
-0.002592
-0.074429
-0.115055
-0.157850
-0.139074
-0.120491
-0.089647
-0.070055
-0.068683
-0.036109
-0.001023
0.028624
0.036348
0.042050
0.040705
0.077008
0.054801
0.089412
0.081562
0.079878
0.105256
0.131890
0.138303
0.113580
0.125285
0.123748
0.141803
0.130931
0.138304
0.114605
0.156341
0.153538
0.186872
0.190027
0.151098
0.160943
0.191293
0.184518
0.173742
0.191448
0.187850
0.198438
0.184809
0.216160
0.216924
0.238946
0.241005
0.239170
0.235516
0.236748
0.244306
0.239451
0.245389
0.298091
0.273053
0.278202
0.286195
0.275654
0.298664
0.293030
0.290784
0.282227
0.300183
0.289075
0.278744
0.293697
0.313100
0.303031
0.307457
0.259577
0.284871
0.276602
0.312537
0.306207
0.291274
0.305921
0.282740
0.303286
0.296245
0.253628
0.274398
0.278396
0.263487
0.248853
0.274091
0.278544
0.266648
0.258918
0.258388
0.243216
0.258286
0.223930
0.212730
0.223814
0.198974
0.213260
0.211815
0.199505
0.169781
0.204655
0.162423
0.160661
0.155354
0.146434
0.175636
0.155785
0.151961
0.163595
0.123765
0.117701
0.140453
0.098644
0.102002
0.103500
0.103124
0.115547
0.073530
0.066676
0.084813
0.087523
0.083818
-0.002927
-0.015517
0.017109
0.018649
0.002519
0.013215
-0.008629
0.011441
0.015895
0.030527
0.022789
0.038535
0.012275
0.032133
0.036208
0.009740
0.044577
0.028599
0.065571
0.066030
0.063720
0.088797
0.097102
0.093937
0.117821
0.154960
0.136826
0.139137
0.138843
0.122285
0.139175
0.139518
0.164024
0.159165
0.144411
0.137024
0.138718
0.115815
0.120961
0.140122
0.122312
0.085834
0.062831
0.092826
0.091976
0.067010
0.066473
0.068736
0.041610
0.030260
0.049662
-0.008619
0.016952
0.021803
0.005899
-0.004559
0.002328
-0.011934
0.009244
-0.013291
-0.026742
-0.019475
-0.019718
-0.028827
-0.057266
-0.047921
-0.047210
-0.035315
-0.006534
0.016494
0.088369
0.197075
0.272666
0.384825
0.499677
0.611894
0.757397
0.846498
0.936078
0.960335
0.980306
0.931286
0.852879
0.732189
0.649828
0.491220
0.348470
0.212469
0.083452
0.032085
-0.063156
-0.089456
-0.136715
-0.121558
-0.140165
-0.114973
-0.061846
-0.079909
-0.046974
0.037252
0.030709
0.060338
0.059890
0.037829
0.081905
0.079420
0.094536
0.089809
0.099975
0.127444
0.088248
0.082578
0.129257
0.114630
0.105728
0.116970
0.125431
0.139937
0.112803
0.141503
0.135840
0.163018
0.184959
0.167808
0.167569
0.179086
0.171393
0.219421
0.199433
0.191776
0.217928
0.217221
0.229785
0.224288
0.254637
0.248745
0.249799
0.247448
0.238247
0.259250
0.242739
0.250678
0.282663
0.280699
0.268106
0.299270
0.305601
0.301400
0.283747
0.274589
0.307685
0.285313
0.292325
0.297160
0.284532
0.290567
0.302722
0.313827
0.321139
0.286347
0.323059
0.275486
0.300287
0.282860
0.297119
0.282226
0.284685
0.298234
0.255884
0.278057
0.252639
0.248313
0.268164
0.273237
0.251573
0.246998
0.275599
0.222397
0.253619
0.243192
0.228156
0.250994
0.240284
0.183459
0.203841
0.223544
0.200619
0.212072
0.194359
0.201705
0.169429
0.168647
0.182605
0.168397
0.165955
0.145965
0.137926
0.121115
0.119744
0.110209
0.119401
0.098100
0.117452
0.122090
0.087115
0.100675
0.086187
0.100997
0.073873
0.064504
-0.004300
0.022387
0.031504
0.019207
-0.010672
0.021883
-0.016360
-0.016536
0.012285
0.018060
0.001613
0.015201
0.020286
0.036571
0.035788
0.044252
0.016298
0.032115
0.051362
0.057357
0.109435
0.083009
0.108233
0.075237
0.108171
0.125603
0.125631
0.129497
0.124944
0.163464
0.159475
0.133248
0.146383
0.158167
0.140964
0.132257
0.142588
0.145016
0.135326
0.086845
0.098635
0.091157
0.080657
0.066809
0.075933
0.063624
0.066389
0.043450
0.037424
0.053941
0.038790
0.028705
0.022610
0.017016
0.003445
0.011001
-0.019086
0.026936
0.029650
0.007134
-0.036542
-0.005108
-0.002549
-0.037753
-0.054539
-0.060729
-0.050002
-0.029650
0.024854
0.031903
0.080682
0.166266
0.268041
0.383516
0.473571
0.626972
0.730884
0.837837
0.934290
0.936711
0.978124
0.924361
0.878970
0.762504
0.639881
0.482298
0.368014
0.206907
0.112497
0.019208
-0.055579
-0.103331
-0.119674
-0.149520
-0.145288
-0.119401
-0.081319
-0.072724
-0.042684
0.018864
0.011251
0.039404
0.051849
0.050354
0.064616
0.062090
0.066375
0.087043
0.119827
0.124293
0.134441
0.104976
0.104751
0.107791
0.126059
0.121172
0.116179
0.135496
0.156428
0.132876
0.174910
0.153925
0.161798
0.172953
0.185719
0.176929
0.176712
0.177642
0.184682
0.205416
0.191278
0.207987
0.245696
0.230983
0.204852
0.237652
0.248519
0.269690
0.254121
0.274795
0.258961
0.272628
0.255244
0.273495
0.281640
0.290756
0.301916
0.255976
0.296722
0.292934
0.289423
0.297694
0.259578
0.264919
0.320654
0.290784
0.284938
0.299611
0.264476
0.319677
0.297534
0.303738
0.317301
0.306928
0.301836
0.298546
0.272924
0.288697
0.269951
0.276378
0.290414
0.276861
0.288027
0.259814
0.270139
0.267137
0.236752
0.242952
0.232157
0.249220
0.223610
0.218621
0.218353
0.205390
0.219022
0.182975
0.187386
0.213196
0.200828
0.191698
0.158068
0.187640
0.175468
0.181820
0.133231
0.149116
0.136936
0.120203
0.132017
0.131896
0.116035
0.094331
0.083761
0.105245
0.112214
0.080526
0.088127
0.079330
0.088983
0.068790
0.043878
0.003759
-0.000430
0.003506
-0.015157
0.022882
-0.003465
-0.013626
0.021240
0.037951
0.004688
0.023451
0.025972
-0.006708
0.021635
0.023605
0.074965
0.037671
0.072464
0.065160
0.089655
0.093754
0.091901
0.111840
0.121419
0.122083
0.145624
0.147807
0.155636
0.133889
0.171080
0.159776
0.181702
0.176205
0.151598
0.171363
0.140413
0.120238
0.141549
0.113025
0.112921
0.079084
0.084589
0.064443
0.091187
0.047876
0.052027
0.035198
0.035344
0.041707
0.027497
0.029545
-0.000674
0.005447
0.013490
0.038055
0.049850
-0.008621
-0.047295
-0.021734
-0.005485
-0.017750
-0.032104
-0.020141
-0.056542
-0.074332
-0.032349
-0.055353
-0.004356
0.035412
0.086595
0.156676
0.276581
0.416496
0.521910
0.585791
0.769889
0.855972
0.923783
0.990700
0.969684
0.909075
0.910935
0.734060
0.636465
0.488103
0.322631
0.232223
0.124898
0.035087
-0.058652
-0.114928
-0.131569
-0.145593
-0.125252
-0.137631
-0.108037
-0.034082
-0.042875
-0.004662
-0.000927
0.020676
0.057843
0.036232
0.063060
0.076829
