0.035243
-0.002514
0.032430
0.046406
0.040291
0.023831
0.039544
0.007117
-0.057489
-0.097246
-0.100277
-0.070614
-0.071386
-0.063875
-0.045877
-0.017785
-0.025697
0.012562
0.041366
0.028727
0.046519
0.021605
-0.042341
-0.017287
-0.073521
-0.069575
-0.011355
-0.012715
-0.039496
-0.033763
-0.050599
-0.060365
-0.040935
-0.017436
0.015523
-0.001529
0.025136
-0.002525
-0.001490
-0.019790
-0.028090
-0.043372
0.017589
-0.024460
0.050202
0.037330
0.038270
0.025136
0.034676
-0.036557
-0.010198
-0.030952
0.030205
0.000656
0.005528
0.021013
0.036703
0.016311
-0.019495
-0.006039
0.031887
0.001434
-0.003887
-0.043254
-0.037526
-0.115423
-0.071279
-0.081544
-0.072416
-0.029830
0.030302
0.094611
0.150473
0.293322
0.462906
0.583385
0.738666
0.858821
0.931214
0.966152
1.002804
0.987293
0.921708
0.781825
0.628843
0.466113
0.389282
0.263555
0.081932
-0.004370
-0.093176
-0.192351
-0.181079
-0.190946
-0.134610
-0.107945
-0.107739
-0.060866
-0.060835
-0.053340
-0.009040
0.025512
0.023702
0.070270
0.082000
0.098065
0.059269
0.033912
0.001184
0.013085
-0.007070
-0.025123
0.032150
0.045144
0.082407
0.111537
0.138759
0.174578
0.173284
0.181440
0.192317
0.171547
0.171295
0.175792
0.131098
0.139021
0.146854
0.132098
0.173205
0.215660
0.230620
0.233634
0.254972
0.236720
0.256538
0.236701
0.259998
0.200483
0.203289
0.225408
0.251599
0.272939
0.325919
0.336759
0.374465
0.334916
0.309430
0.281664
0.300554
0.301425
0.295704
0.272121
0.327208
0.295954
0.353522
0.311887
0.360372
0.304347
0.313996
0.316053
0.359698
0.333793
0.351281
0.304273
0.301143
0.264110
0.300034
0.277971
0.249990
0.228557
0.256613
0.188937
0.174501
0.179854
0.212130
0.183864
0.248487
0.288658
0.263694
0.263995
0.285806
0.228740
0.253686
0.258529
0.299144
0.263509
0.248436
0.268572
0.240740
0.166267
0.212741
0.191338
0.181636
0.178120
0.187558
0.196770
0.155218
0.163775
0.126143
0.109846
0.102306
0.088347
0.082317
0.091514
0.092882
0.074399
0.082938
0.128384
0.133032
0.152277
0.116871
0.100403
0.123506
0.081904
0.074070
0.060292
0.050518
0.087776
0.042461
0.049540
0.042625
0.060160
0.049638
0.055744
0.038015
0.026565
0.028574
0.042886
0.016719
0.001924
0.001282
-0.028299
0.008349
-0.009905
0.011383
-0.017722
-0.025960
-0.006554
-0.014174
0.011699
-0.032727
-0.048543
-0.047528
-0.039169
-0.040267
-0.031092
0.044037
0.046933
0.020844
0.019037
0.057836
0.043448
0.028693
0.016479
0.060639
0.051688
-0.013666
-0.038097
0.008539
-0.004269
0.021415
0.049810
0.074611
-0.017611
0.008135
-0.048836
-0.042105
-0.003930
-0.048379
-0.021411
-0.030622
-0.028979
-0.063339
-0.056512
-0.064681
-0.037254
-0.045066
-0.051879
-0.018608
-0.069578
-0.004319
-0.007810
-0.002130
-0.046424
-0.057048
-0.086787
-0.065188
-0.067773
-0.046177
-0.050079
0.035825
-0.003695
0.045290
0.023133
-0.004931
-0.028631
-0.047604
-0.052742
-0.052644
-0.024022
0.042191
0.094609
0.193415
0.308048
0.397285
0.445955
0.587953
0.671014
0.792013
0.904112
0.972013
0.993668
0.932038
0.865494
0.707452
0.574451
0.454809
0.372802
0.237616
0.139759
0.015790
-0.057972
-0.122199
-0.099597
-0.073187
-0.126214
-0.086522
-0.053640
-0.042615
-0.016450
0.047924
0.019329
0.071240
0.022771
0.059463
0.081999
0.111823
0.163384
0.185416
0.210336
0.152505
0.085524
0.066274
0.085365
0.092855
0.116804
0.127137
0.122002
0.158203
0.122110
0.114855
0.084288
0.095625
0.100492
0.068220
0.110740
0.118152
0.123415
0.148977
0.193349
0.222666
0.210273
0.177692
0.221539
0.192660
0.271295
0.258196
0.303564
0.318388
0.340370
0.281936
0.260073
0.273430
0.222469
0.245147
0.266917
0.284666
0.264773
0.275182
0.280154
0.268598
0.219388
0.308576
0.224284
0.254496
0.281834
0.296104
0.278864
0.301813
0.251847
0.242343
0.247636
0.182009
0.250337
0.280119
0.261835
0.234966
0.253470
0.216791
0.227709
0.285974
0.282646
0.312492
0.309518
0.281039
0.249598
0.232624
0.209114
0.180376
0.186677
0.197794
0.181890
0.170981
0.206231
0.238459
0.225637
0.238068
0.244962
0.218401
0.215533
0.215325
0.245378
0.211074
0.218317
0.208381
0.185831
0.210968
0.183228
0.208158
0.173299
0.181295
0.181707
0.161145
0.135847
0.152851
0.141398
0.131431
0.104328
0.105254
0.052434
0.116836
0.107641
0.100702
0.100231
0.112574
0.129270
0.127261
0.102420
0.071672
0.074972
0.029015
0.008208
0.028426
0.035152
0.020253
0.052454
0.000099
0.034526
0.030042
-0.054053
-0.056390
-0.049639
-0.049612
-0.048346
-0.033413
-0.024471
-0.038625
-0.012747
-0.089095
-0.027787
-0.069014
-0.000366
0.032443
0.044893
0.024784
0.031744
0.018185
-0.028541
-0.051595
-0.028649
-0.060838
-0.035619
0.012912
-0.016850
0.012144
0.002073
-0.026188
0.019623
0.045615
-0.017141
0.017526
-0.000579
-0.016930
-0.035167
0.019269
0.004814
-0.001682
-0.000800
0.018744
-0.003217
-0.011529
-0.003819
-0.035366
-0.059092
0.017385
-0.044479
-0.010744
0.005991
0.063860
0.033379
0.074231
0.050816
0.011092
0.001392
-0.002887
0.019273
0.029170
0.030712
-0.017639
0.034814
0.021989
-0.013371
-0.001176
0.006820
0.019046
-0.002681
-0.019780
0.023344
0.098309
0.142819
0.203053
0.306398
0.388426
0.496912
0.613891
0.680565
0.819978
0.883293
0.890316
0.895907
0.860711
0.734156
0.608414
0.528366
0.390483
0.271736
0.177090
0.050805
-0.038311
-0.102846
-0.172675
-0.222075
-0.202351
-0.173262
-0.177648
-0.133614
-0.111752
-0.039251
-0.042642
-0.037337
-0.048761
-0.004629
-0.041320
-0.017174
-0.032111
-0.079025
-0.065969
0.064849
-0.035130
-0.018183
-0.016630
-0.026937
-0.006166
-0.008394
-0.029764
0.011306
-0.014714
-0.004096
-0.007878
-0.020830
-0.011693
-0.021692
0.006327
0.022652
0.007018
-0.021742
-0.015240
0.018011
0.003100
-0.044891
-0.023662
-0.039802
-0.034836
-0.049183
-0.028925
-0.017587
-0.009559
0.005023
0.032380
-0.016603
-0.006692
-0.024491
-0.029334
-0.043201
-0.036182
-0.051104
-0.041703
-0.064526
-0.055837
-0.034323
0.000353
0.019510
0.023190
0.023336
0.017438
0.026551
-0.056906
-0.004109
-0.045102
0.004454
-0.007496
0.007299
-0.002036
0.039068
0.033328
0.033348
-0.001292
-0.006954
0.010778
-0.002749
-0.043594
-0.033002
-0.031297
-0.073830
-0.069948
-0.014264
0.004082
0.022895
0.037877
-0.004122
0.014356
0.009570
-0.032003
-0.047300
-0.028441
-0.005805
-0.053058
0.004058
0.049946
0.089705
0.150868
0.243799
0.376131
0.558849
0.665780
0.824974
0.927704
1.013993
0.936672
0.909453
0.895391
0.832817
0.762215
0.634054
0.571874
0.388144
0.237733
0.079580
-0.020162
-0.088765
-0.130445
-0.117370
-0.084470
-0.121962
-0.069608
-0.072629
-0.060854
-0.048614
-0.018372
0.016248
0.061464
0.084917
0.115606
0.110261
0.129820
0.077375
0.043850
0.086983
0.104864
0.144725
0.143999
0.188885
0.209301
0.202256
0.158326
0.162000
0.163955
0.133360
0.143959
0.123199
0.141308
0.127273
0.093867
0.174668
0.158265
0.205235
0.214445
0.248319
0.209986
0.216632
0.257374
0.268544
0.266282
0.312172
0.317577
0.230050
0.289239
0.271887
0.260506
0.310289
0.337966
0.323567
0.332450
0.288507
0.236573
0.267526
0.242613
0.273084
0.308887
0.307454
0.299800
0.283642
0.276544
0.284138
0.310499
0.291752
0.288899
0.303597
0.314646
0.255353
0.299895
0.363942
0.282020
0.291504
0.262563
-0.025879
-0.049681
0.002590
-0.010833
-0.021804
-0.010547
0.009083
-0.006039
-0.008751
-0.002971
-0.013732
-0.021732
-0.032126
-0.045295
-0.034453
-0.088828
-0.026820
-0.025410
0.016038
0.030722
0.081195
0.082938
0.044112
-0.023881
-0.081147
-0.080754
-0.062793
-0.037864
-0.045805
0.047847
0.020492
0.018582
-0.023478
0.051196
0.037979
0.016852
0.013780
0.014463
0.010304
0.007973
0.026787
0.063725
0.033132
-0.000721
0.017249
0.009307
0.016219
0.024294
0.072443
0.003703
0.058458
-0.007593
-0.027076
-0.025235
-0.030740
-0.030655
-0.035248
-0.028285
-0.041971
0.004661
0.004597
0.016961
0.028879
0.018229
-0.019823
-0.058405
-0.015897
-0.048213
-0.008709
0.069691
0.100621
0.191349
0.266191
0.374038
0.505502
0.572036
0.630838
0.787774
0.852368
0.936356
0.964388
0.953043
0.823049
0.765625
0.695719
0.520608
0.399329
0.308835
0.150466
0.015997
-0.065823
-0.122182
-0.167202
-0.162309
-0.178697
-0.126893
-0.141417
-0.076314
-0.023616
0.013140
0.045937
0.024344
0.013936
0.092341
0.093296
0.061399
0.094873
0.099997
0.096024
0.125337
0.141989
0.106210
0.113119
0.089332
0.096845
0.118497
0.133941
0.016201
0.059576
0.071406
0.116488
0.070640
0.038442
0.018627
-0.000642
-0.025968
0.011803
0.009929
0.011470
0.030771
0.010743
-0.036022
-0.004157
-0.016134
0.007417
0.064303
0.036351
0.009925
0.041813
0.007227
0.005520
0.005474
-0.012449
-0.039318
-0.075342
-0.069258
-0.049685
-0.040516
-0.024075
0.019862
0.009157
0.050077
0.064920
0.064583
0.055294
0.060896
0.040231
-0.004262
-0.029476
-0.063918
-0.046855
-0.051282
-0.051539
-0.056653
-0.001947
0.044365
0.050167
0.048227
0.029885
-0.004557
-0.007624
-0.011107
-0.000156
-0.029810
0.005510
0.039825
0.018108
0.038996
0.002686
-0.009284
-0.025273
-0.044853
-0.085002
-0.060039
-0.072171
-0.078496
-0.094725
-0.052334
-0.028856
0.040123
0.085500
0.142743
0.225270
0.318051
0.447140
0.579716
0.700693
0.863700
0.925834
0.951128
0.978315
0.952434
0.869723
0.794614
0.617590
0.493276
0.408658
0.302686
0.130302
0.096522
-0.051113
-0.134065
-0.134083
-0.171391
-0.218078
-0.145562
-0.145551
-0.129147
-0.097123
-0.071937
-0.022060
0.067763
0.082441
0.079307
0.119926
0.145677
0.111066
0.139719
0.107545
0.159368
0.152330
0.151121
0.177894
0.191597
0.200599
0.191825
0.195851
0.150369
0.141773
0.135811
0.140585
0.139718
0.151912
0.167263
0.184116
0.213771
0.217888
0.197377
0.202337
0.182261
0.168025
0.206785
0.196467
0.228403
0.194785
0.269359
0.246025
0.263762
0.252420
0.304712
0.277513
0.257477
0.269297
0.264962
0.316090
0.294698
0.319000
0.332285
0.333751
0.325889
0.325977
0.339332
0.325642
0.335704
0.352244
0.401498
0.392592
0.367440
0.369518
0.311422
-0.000190
-0.008018
0.013222
-0.025191
-0.016491
0.016902
0.043696
0.060748
0.055930
0.084887
0.022542
-0.000411
0.017261
0.044843
0.068657
0.044445
0.107152
0.099780
0.056752
0.050548
0.041805
-0.024656
-0.013258
-0.002002
-0.055506
-0.070809
-0.046334
-0.054101
-0.044829
-0.044412
0.007451
0.015395
0.011733
0.001969
0.073887
0.063888
0.049705
0.020141
-0.068055
-0.027907
-0.073448
-0.057232
-0.036581
0.035868
0.001505
0.039164
-0.035944
-0.057163
-0.089796
-0.097710
-0.080946
-0.035123
-0.059076
-0.007738
-0.018970
-0.032035
-0.021609
-0.065713
-0.019291
-0.027073
0.012284
-0.003910
0.027878
-0.029762
-0.033377
-0.050512
-0.030230
-0.041020
-0.019410
0.065983
0.119890
0.215013
0.279615
0.372749
0.475214
0.612207
0.701097
0.857797
0.919990
1.012166
0.983648
0.914465
0.822996
0.694481
0.577205
0.429701
0.375020
0.250703
0.162782
0.063100
0.009956
-0.076137
-0.093633
-0.118912
-0.101313
-0.073030
-0.098378
-0.054802
0.018523
0.027093
0.016381
0.064060
0.096244
0.046952
0.036603
0.062927
0.027262
-0.003738
0.056995
0.049595
0.001944
0.105709
0.076939
0.066347
0.046759
0.103923
0.075498
0.086241
0.100284
0.138575
0.111538
0.124977
0.142495
0.122074
0.145810
0.180758
-0.014160
-0.035745
-0.074464
-0.041544
-0.050334
-0.004215
0.012026
0.047509
0.075255
0.065036
0.086462
0.078811
0.023348
0.021186
0.022824
-0.021715
0.018584
0.013736
-0.039299
-0.086438
-0.041457
-0.055995
-0.091592
-0.094368
-0.082716
-0.040182
-0.036931
-0.011637
0.055541
0.038305
0.009733
0.008587
-0.069512
-0.035636
-0.059836
-0.046454
-0.037447
0.021586
0.031640
0.022306
-0.006580
-0.002958
-0.046895
-0.072374
-0.092208
-0.037174
-0.018350
0.003697
-0.019913
0.032765
0.003286
-0.046831
-0.011080
0.025331
-0.019742
-0.035568
-0.062031
-0.051937
-0.065982
-0.093824
-0.064353
-0.058543
-0.066073
-0.085735
-0.049897
-0.050291
-0.058630
-0.012475
0.037519
0.075121
0.134000
0.231457
0.271280
0.378061
0.482825
0.602922
0.697787
0.792864
0.871275
0.884076
0.904828
0.887240
0.821599
0.673995
0.579145
0.473910
0.295810
0.176035
0.063109
-0.047106
-0.098407
-0.114494
-0.158668
-0.111953
-0.073081
-0.082633
-0.080677
-0.058660
-0.033726
-0.007098
0.074338
0.053597
0.019623
0.084268
0.081482
0.118476
0.109675
0.092768
0.075974
0.077984
0.096340
0.112072
0.153306
0.148834
0.170090
0.188549
0.141762
0.090046
0.133108
0.130739
0.119025
0.145229
0.187692
0.145119
0.180313
0.147781
0.165013
0.175275
0.192025
0.145795
0.203578
0.235970
0.218165
0.234472
0.258567
0.244054
0.228230
0.241590
0.229400
0.265508
0.346930
0.251349
0.263876
0.320919
0.274890
0.248077
0.267764
0.287919
0.271883
0.261036
0.307296
0.315852
0.318633
0.295166
0.300129
0.308028
0.316261
0.359891
0.335535
0.374489
0.343339
0.379839
0.356891
0.347577
0.300091
0.267494
0.233580
0.225959
0.264217
-0.010653
0.001630
0.031502
0.051633
0.031603
0.017935
0.013305
-0.016221
-0.019981
-0.018255
-0.052228
-0.043274
-0.020310
-0.032623
-0.076264
-0.036749
-0.066342
-0.040934
-0.078966
0.010298
0.004320
0.061435
0.108119
0.073655
0.034642
0.056369
0.003916
0.032617
0.034643
-0.005557
0.003359
0.021265
-0.065530
-0.036336
-0.037702
-0.056190
-0.091512
-0.016653
-0.021875
-0.022305
0.004749
-0.046654
-0.011717
-0.088933
-0.099099
-0.077894
-0.057448
-0.033124
0.039268
0.037531
0.037777
0.069647
0.097370
0.054805
0.075964
0.079222
0.062779
0.061487
0.086988
0.052340
0.037723
-0.024673
-0.055653
-0.081145
-0.059440
-0.086052
-0.109173
-0.015173
0.017998
0.050103
0.129549
0.209278
0.313472
0.388893
0.472815
0.607830
0.640025
0.777968
0.859774
0.896316
0.886918
0.890170
0.812918
0.720695
0.611557
0.546957
0.360827
0.221581
0.111954
0.024057
-0.065655
-0.105084
-0.080734
-0.082878
-0.102101
-0.085198
-0.077309
-0.089356
-0.009900
-0.001109
-0.003804
-0.000074
0.051860
0.048897
0.087909
0.095044
0.078821
0.026799
0.066338
0.078801
0.106060
0.117645
0.117320
0.143666
0.111574
0.136653
0.161320
0.203500
0.171108
0.149955
0.169868
0.141685
0.144621
0.132755
0.161038
0.170590
0.244519
0.262502
0.270560
0.221405
0.188226
0.149088
0.203781
0.188842
0.179884
0.194369
0.192733
0.120850
0.155206
0.191152
0.147296
0.249028
0.250877
-0.032863
-0.040844
0.026700
-0.038647
-0.028882
-0.038787
-0.025493
0.004213
-0.011719
0.012125
0.033376
0.024175
0.019830
-0.009404
-0.040268
-0.026700
-0.027780
-0.018720
0.028398
0.055392
0.105876
0.055724
0.040434
0.053134
-0.015938
-0.009390
-0.013446
-0.008259
0.039973
0.027361
0.039332
0.024787
0.040603
-0.009728
-0.010980
-0.009845
0.031186
0.067781
0.056636
0.022303
0.039043
0.037023
0.006779
0.009338
-0.003053
-0.029628
-0.054045
-0.020770
-0.040077
-0.060185
-0.047747
-0.057180
-0.090124
-0.020046
-0.008089
0.007120
-0.001045
-0.006425
-0.046514
-0.053768
-0.072814
-0.034768
-0.050286
-0.038170
0.014907
0.025250
0.073104
0.023694
0.034013
0.069224
0.141497
0.182169
0.243132
0.352905
0.437105
0.583253
0.681720
0.797431
0.898914
0.920228
0.923327
0.907402
0.833977
0.707986
0.622683
0.485416
0.329955
0.223143
0.142987
0.030004
-0.054666
-0.062472
-0.114135
-0.144674
-0.133611
-0.119941
-0.157451
-0.083654
-0.038451
-0.056640
-0.002798
0.006177
0.021506
0.011295
0.041661
0.094502
0.107242
0.137696
0.145694
0.118140
0.148395
0.133316
0.114728
0.107993
0.151800
0.132502
0.121886
0.128472
0.116108
0.093437
0.074188
0.158921
0.114446
0.125134
0.147795
0.155652
0.164230
0.168223
0.174959
0.219976
0.170486
0.195968
0.213853
0.221549
0.221453
0.189373
0.238311
0.248760
0.288001
0.286227
0.305636
0.281563
0.284806
0.272876
0.249371
0.266823
0.224382
0.248198
0.238557
0.283399
0.292940
0.317135
0.317709
0.350640
0.327389
0.329140
0.328402
0.335833
0.276816
0.292276
0.236668
0.308683
0.291668
0.302806
0.252075
0.287233
0.241548
0.241275
0.261412
0.260380
0.263160
0.311872
0.283648
0.257569
0.225212
0.229042
0.197548
0.179069
0.197729
0.224511
0.184343
0.151949
0.185696
0.228189
0.201794
0.213276
0.206602
0.226261
0.241259
0.277482
0.241406
0.237102
0.267897
0.180633
0.132431
0.132649
0.157827
0.139232
0.194455
0.174222
0.164579
0.146802
0.138220
0.125955
0.118430
0.141924
0.147150
0.084748
0.057377
0.098884
0.049269
0.034000
0.012503
0.039923
0.055956
0.063006
0.059279
0.067275
0.065748
0.009912
0.006732
0.016080
0.041580
0.038668
0.037178
0.024846
-0.003140
0.015975
-0.022787
0.011987
-0.002613
0.040848
0.026129
0.037884
0.047390
0.066907
-0.017728
-0.000235
-0.020719
-0.059975
-0.039530
-0.028693
-0.034571
-0.000277
-0.054323
-0.047363
0.006739
0.025139
0.030616
0.036626
0.043684
-0.000543
-0.016634
-0.022080
-0.000911
0.026071
0.013431
0.021064
0.008880
-0.059698
-0.063823
-0.001362
-0.011978
-0.015205
0.021380
0.049480
0.011782
-0.050173
-0.014213
-0.063392
-0.033926
-0.067834
-0.013275
0.000657
0.025549
0.011235
0.024742
0.016260
0.040393
-0.043429
-0.002868
-0.050383
-0.027286
-0.056366
-0.046663
-0.036218
-0.069491
-0.099718
-0.034646
-0.044726
0.008172
0.031751
0.043957
0.007410
0.053048
0.020414
-0.019971
-0.005118
-0.033848
-0.068771
0.008157
0.056223
0.044351
0.066583
0.018117
-0.000995
0.044998
-0.010781
-0.005878
-0.023610
0.002439
-0.037245
-0.031882
-0.028833
-0.032698
0.000763
0.019334
0.032305
0.004513
0.009508
-0.031275
-0.045772
0.009873
0.015462
0.015775
0.023894
0.059899
-0.008709
0.000878
-0.001672
0.006574
0.002611
0.020156
0.028024
0.044759
-0.009204
0.011632
0.006973
-0.007168
-0.053764
-0.019954
-0.060398
-0.036246
-0.035142
-0.002051
-0.023684
0.006390
0.003049
-0.038902
-0.010712
-0.007392
0.044560
0.130391
0.228497
0.332918
0.433206
0.498351
0.572722
0.669179
0.732825
0.859350
0.934670
0.997727
0.937513
0.863556
0.795901
0.647883
0.483744
0.339121
0.186980
0.089928
-0.049062
-0.095674
-0.149773
-0.170936
-0.214583
-0.163777
-0.121955
-0.117908
-0.071409
-0.065528
-0.003225
0.006954
0.014087
0.023537
0.020141
0.067782
0.101168
0.072564
0.098305
0.123514
0.122515
0.123998
0.149780
0.125431
0.086820
0.113623
0.123954
0.078195
0.086483
0.127031
0.116401
0.121909
0.115588
0.194144
0.211958
0.217755
0.216193
0.269529
0.244253
0.280482
0.222991
0.242463
0.190676
0.235846
0.202009
0.229847
0.266107
0.279142
0.266274
0.324439
0.335107
0.302075
0.248011
0.280509
0.276236
0.305483
0.301012
0.276854
0.264349
0.234063
0.182950
0.245697
0.195521
0.257453
0.297815
0.321242
0.234991
0.264330
0.264696
0.229398
0.267545
0.366008
0.317696
0.352807
0.354057
0.331897
0.307576
0.301681
0.261894
0.303012
0.279056
0.267533
0.273718
0.280176
0.226176
0.247504
0.290274
0.283537
0.290611
0.322681
0.328881
0.300897
0.317098
0.285040
0.270795
0.265659
0.233572
0.239943
0.221569
0.210451
0.223172
0.183871
0.207393
0.242910
0.222844
0.175944
0.171940
0.144090
0.131133
0.130639
0.109420
0.095714
0.174785
0.116563
0.156137
0.073984
0.084979
0.030916
0.039435
0.027739
0.047181
0.046339
0.035967
-0.048786
-0.048677
-0.021001
-0.061517
-0.031292
-0.024171
0.014554
-0.002826
-0.004835
-0.004428
-0.013224
-0.002072
-0.000914
0.021262
-0.011474
0.007340
-0.056263
-0.039717
0.013589
0.007422
0.026645
0.025569
0.056251
-0.004625
0.009447
0.003157
-0.039266
-0.022083
-0.030728
-0.027015
0.023531
0.011595
-0.009112
0.038840
-0.013952
-0.029368
0.026290
0.085626
0.070904
0.081104
0.043567
0.040712
0.001661
-0.015747
-0.026813
-0.085127
-0.094257
-0.081184
-0.070316
-0.021153
-0.001535
0.032129
-0.028950
-0.002245
-0.006480
0.026673
0.001598
0.067435
0.036241
0.014109
-0.013566
-0.016319
-0.038003
-0.023119
-0.063504
-0.003498
-0.072266
-0.023945
-0.003275
0.029003
0.050778
0.133100
0.221092
0.349464
0.423871
0.547671
0.682750
0.815705
0.878432
0.884719
0.951734
0.930380
0.888603
0.814532
0.715994
0.590418
0.439088
0.299528
0.136176
0.060646
0.009483
-0.014615
-0.048511
-0.060412
-0.096015
-0.128681
-0.144585
-0.120912
-0.155945
-0.103726
-0.070803
-0.009402
0.007840
0.075574
0.067560
0.048381
0.023953
0.025807
0.031430
0.057143
0.079342
0.107606
0.093105
0.103305
0.119613
0.118783
0.106926
0.166868
0.154085
0.145237
0.167607
0.174308
0.178000
0.211473
0.226634
0.213507
0.237110
0.176203
0.152007
0.189060
0.176258
0.177916
0.146778
0.169509
0.207519
0.227851
0.195304
0.229935
0.246349
0.195588
0.216939
0.303427
0.257094
0.310526
0.284060
0.274024
0.272802
0.306524
0.286527
0.287013
0.285264
0.344421
0.328735
0.389600
0.369209
0.334621
0.320222
0.316110
0.300827
0.292894
0.275641
0.258772
0.258926
0.252739
0.248710
0.287948
0.269327
0.290227
0.342556
0.371903
0.337655
0.301439
0.282509
0.280228
0.234511
0.247530
0.270913
0.287687
0.294469
0.245997
0.294843
0.293751
0.303559
0.282403
0.306609
0.236674
0.275567
0.239180
0.271050
0.269993
0.244657
0.242688
0.211716
0.157545
0.158963
0.127101
0.157993
0.097388
0.084110
0.109838
0.068064
0.040209
0.061574
0.118644
0.116556
0.108005
0.128598
0.107126
0.065426
0.047732
0.029943
0.024537
0.020178
-0.024216
0.017162
-0.033298
-0.025479
-0.064997
0.009757
-0.002347
-0.018832
-0.006725
0.025297
-0.024516
-0.033031
0.010774
-0.008090
-0.065541
-0.074053
0.008769
0.003963
0.010656
0.056427
0.008573
-0.051632
-0.040123
-0.038577
-0.014708
0.007474
-0.003944
0.012204
0.000945
0.032466
0.012696
0.062608
0.019302
0.054505
0.004680
0.021359
-0.025719
0.031332
0.014755
0.029083
0.023500
0.038643
0.033834
0.007143
0.011069
0.026928
-0.036593
-0.016032
0.004768
-0.020298
-0.046899
-0.025619
-0.003116
0.000529
0.021094
0.052513
0.052411
0.013862
0.016448
-0.006337
-0.091826
-0.120105
-0.081629
-0.103060
-0.060237
-0.068145
-0.061296
-0.067673
-0.074164
-0.034904
0.037951
0.116014
0.219632
0.390689
0.483805
0.597500
0.725365
0.821580
0.915038
0.999328
1.018531
1.012543
0.906240
0.815484
0.669595
0.529334
0.362709
0.233572
0.105956
0.048466
-0.039546
-0.089809
-0.074253
-0.159365
-0.147757
-0.128782
-0.075136
-0.042438
-0.046690
-0.020392
-0.006191
-0.005643
-0.019183
0.033469
0.092768
0.104519
0.090071
0.114497
0.128327
0.109651
0.102869
0.116250
0.105385
0.096743
0.110858
0.132997
0.144899
0.187123
0.168076
0.182736
0.191157
0.135587
0.167332
0.162154
0.184118
0.167562
0.158302
0.157706
0.168439
0.183694
0.242599
0.218055
0.249203
0.223386
0.239004
0.221597
0.214985
0.177850
0.177795
0.168256
0.209762
0.251517
0.305845
0.333671
0.360487
0.378028
0.303158
0.294922
0.291529
0.255695
0.273275
0.324250
0.280956
0.339380
0.345136
0.350031
0.307797
0.327686
0.319926
0.312181
0.307174
0.300216
0.308714
0.346006
0.328585
0.387706
0.378408
0.383402
0.319736
0.314527
0.276209
0.274624
0.250558
0.264782
0.270850
0.267292
0.241178
0.262980
0.229335
0.202245
0.195447
0.228227
0.218267
0.213729
0.237078
0.182141
0.151935
0.100581
0.158082
0.182278
0.189959
0.238064
0.251404
0.231909
0.203296
0.212642
0.167973
0.159503
0.157884
0.105841
0.071029
0.065849
0.071589
0.043991
0.074408
0.094276
0.076330
0.131966
0.118823
0.118212
0.085489
0.094156
0.065369
0.052482
0.025412
0.022729
0.031080
0.044736
0.043426
0.037324
0.038349
0.035671
0.094710
0.107978
0.070114
0.112598
0.118475
0.086409
-0.021416
0.027510
-0.042864
-0.055131
-0.010291
-0.003378
-0.053962
-0.035989
-0.023865
-0.064862
-0.009706
0.023993
0.014713
0.030901
0.020088
0.004764
0.040658
0.014058
0.051468
-0.002744
0.029284
0.063061
-0.003182
-0.005509
0.063363
0.033795
0.061834
0.034700
0.031185
0.007115
-0.054021
-0.065323
-0.064537
-0.026767
-0.029023
-0.018744
0.011094
0.036441
-0.032013
0.011834
0.010849
0.038125
0.016121
0.065169
0.030588
-0.014673
-0.006272
-0.003860
-0.002616
-0.011207
0.017567
-0.027333
0.023922
0.037849
0.026773
0.077987
0.049086
0.013052
0.012547
-0.010515
0.053756
0.020105
0.017961
0.055163
0.021797
-0.013046
0.010506
0.004831
0.017171
0.041839
0.046033
0.022060
0.006901
-0.004654
0.004149
0.002851
0.030672
0.034945
0.004518
-0.000900
-0.033971
-0.056058
-0.042472
0.006822
-0.006198
0.014326
0.051839
-0.018395
-0.017506
-0.012014
-0.034311
-0.059815
-0.074513
-0.069386
-0.025137
0.026055
-0.025231
-0.058874
-0.051596
-0.027652
-0.114931
-0.032836
0.001669
0.018464
-0.012021
0.001033
-0.016671
-0.043822
-0.047079
-0.067987
-0.035672
-0.005756
0.030418
0.040054
0.018424
0.000178
-0.038972
0.034080
-0.034575
0.007288
0.005057
0.008827
-0.045884
-0.001886
-0.014999
0.014334
0.011853
0.047658
0.002397
-0.047873
0.002198
-0.003231
0.004913
-0.020877
-0.048439
-0.085167
-0.109934
-0.141315
-0.087761
-0.071830
-0.079406
-0.029563
-0.058207
-0.009963
0.062111
0.146717
0.233016
0.431227
0.560982
0.622351
0.770237
0.841291
0.867536
0.978419
1.009553
0.978750
0.874299
0.786309
0.625155
0.505806
0.376709
0.265113
0.128338
0.054889
-0.034189
-0.123526
-0.169150
-0.175199
-0.217041
-0.116098
-0.114132
-0.075552
-0.065370
-0.019004
-0.086312
-0.075332
-0.028514
-0.087294
-0.040105
0.008252
0.000261
0.021151
0.085816
0.139407
0.147970
0.186136
0.170647
0.162803
0.180286
0.192412
0.160120
0.180701
0.200244
0.244993
0.207639
0.203159
0.202692
0.203196
0.181184
0.166488
0.211119
0.195670
0.208046
0.211314
0.262618
0.249184
0.240975
0.219331
0.250328
0.188584
0.250889
0.272951
0.276976
0.257619
0.229308
0.223890
0.294308
0.272870
0.276167
0.297766
0.278016
0.257458
0.242323
0.276940
0.248096
0.238097
0.251802
0.262038
0.303671
0.321764
0.312159
0.320130
0.339304
0.316637
0.278779
0.276010
0.326393
0.254864
0.256704
0.284027
0.313221
0.316803
0.333891
0.333493
0.302586
0.281810
0.249787
0.297100
0.249700
0.265343
0.266138
0.272089
0.250429
0.257946
0.197390
0.165756
0.143331
0.174427
0.182652
0.177098
0.233037
0.242423
0.186485
0.219667
0.193121
0.183367
0.225147
0.214201
0.215436
0.180274
0.163559
0.170147
0.179985
0.204104
0.184136
0.158948
0.109796
0.146995
0.045613
0.071938
0.100637
0.071766
0.069644
0.076975
0.070096
0.056998
0.060620
0.069545
0.078137
0.022118
0.027037
-0.031234
0.003087
0.022439
0.099978
0.086758
0.123503
0.068866
0.047162
0.048634
0.041737
0.029994
0.033994
0.067569
0.029970
0.061711
0.047374
0.096282
0.078946
0.064057
0.062547
-0.011697
-0.036413
-0.038668
0.007023
-0.026527
-0.058738
-0.097441
-0.091356
-0.122775
-0.104201
-0.057229
-0.069219
-0.056907
-0.041049
-0.043083
-0.019283
-0.049106
-0.038368
-0.007239
0.023960
-0.030423
-0.065003
-0.073987
-0.069705
-0.072060
0.007364
0.037651
0.075868
0.058074
0.046574
0.008595
0.031292
-0.046392
-0.017838
-0.013141
-0.028963
-0.015593
0.000634
-0.012051
0.008945
0.010883
0.009367
0.043980
0.001848
-0.022356
-0.002790
-0.004927
-0.019297
0.014680
-0.015100
-0.022353
0.018267
-0.016356
-0.048569
-0.006297
-0.001634
0.062631
0.143450
0.252614
0.376000
0.484962
0.635114
0.755327
0.854066
0.903007
0.961203
0.984253
0.936243
0.891819
0.767840
0.611514
0.473417
0.318260
0.202248
0.050527
-0.029253
-0.087864
-0.136103
-0.204396
-0.203337
-0.182959
-0.156848
-0.151032
-0.104461
-0.083690
-0.035513
0.020543
0.028140
0.063389
0.065092
0.084495
0.064420
0.084720
0.032697
0.059717
0.125982
0.117173
0.119175
0.171037
0.146622
0.114823
0.164837
0.137600
0.159824
0.175297
0.180730
0.152663
0.212282
0.166172
0.173322
0.188149
0.177223
0.143479
0.139470
0.195385
0.194277
0.230185
0.254526
0.226501
0.230626
0.243307
0.235873
0.253015
0.288312
0.278167
0.262517
0.250665
0.264974
0.277433
0.271542
0.301806
0.328334
0.290975
0.241244
0.265191
0.229721
0.252888
0.298101
0.313536
0.302076
0.292287
0.319925
0.320491
0.290921
0.294680
0.336794
0.325002
0.324323
0.307956
0.266990
0.260262
0.250258
0.226946
0.226797
0.252879
0.235429
0.205352
0.254259
0.228009
0.282970
0.257551
0.290306
0.260516
0.287037
0.293057
0.298885
0.252803
0.226940
0.266858
0.224180
0.267268
0.259025
0.201528
0.187034
0.168654
0.129737
0.143717
0.177808
0.147588
0.209246
0.149700
0.132438
0.133659
0.131105
0.074462
0.116326
0.093137
0.106105
0.080369
0.088221
0.092447
0.069753
0.049768
0.030018
0.077613
0.067286
0.093831
0.052707
0.109961
0.102797
0.064344
0.059592
0.132226
0.091209
0.100072
0.114176
0.112046
0.055699
0.114536
0.057106
0.049999
0.011891
0.047460
0.006583
0.053154
0.030101
0.035012
0.023119
0.015974
-0.004804
-0.024821
0.022594
0.005588
0.001936
-0.015844
0.034870
0.047646
0.057531
0.052623
0.097876
0.018316
0.048578
0.000315
0.043877
0.015097
0.027321
-0.015031
-0.017519
0.017728
0.041862
0.038964
0.000111
0.008240
0.003757
-0.002272
0.019506
-0.001969
0.008803
0.013291
0.030940
0.003485
0.013094
-0.012445
-0.057452
-0.042332
-0.012373
-0.017101
-0.020126
-0.020596
-0.019629
-0.025640
0.003873
0.011802
0.000431
0.000651
0.057386
0.014909
-0.012516
0.011319
-0.031600
-0.053746
-0.000941
0.000534
0.034899
0.055002
0.022612
0.014145
-0.002113
-0.009594
0.014039
-0.013577
0.028595
0.019898
-0.008353
0.028306
-0.003524
0.009493
-0.018850
-0.007350
-0.006742
-0.019392
0.033525
0.016079
0.022404
0.013862
0.045286
0.014813
0.055000
0.022708
-0.004131
-0.002390
-0.016318
-0.049081
-0.052483
-0.046668
0.006102
0.027416
-0.034768
-0.003439
-0.036863
-0.093497
-0.099765
-0.100485
-0.074300
-0.077255
-0.060789
-0.028954
-0.007889
-0.032228
-0.038020
-0.039406
0.006847
0.053647
0.081788
0.204405
0.321361
0.406819
0.486104
0.667273
0.780280
0.895767
0.953053
1.037099
0.973067
0.939592
0.841948
0.737214
0.629717
0.511148
0.368588
0.188293
0.080224
0.001240
-0.083179
-0.123852
-0.131514
-0.107052
-0.118241
-0.076867
-0.075977
-0.027828
-0.011698
-0.033402
-0.033516
0.008925
-0.007779
0.016925
0.061414
0.047293
0.000480
0.064245
0.065706
0.076467
0.067792
0.102029
0.095051
0.091861
0.088457
0.115617
0.057012
0.148124
0.162938
0.182245
0.167420
0.183241
0.145307
0.150355
0.153426
0.158220
0.178629
0.187211
0.145042
0.134053
0.145129
0.122779
0.153119
0.191535
0.194589
0.202176
0.163324
0.164929
0.242896
0.228596
0.281511
0.272668
0.334135
0.293117
0.253799
0.284145
0.312959
0.290357
0.342810
0.343180
0.324602
0.284880
0.326565
0.341094
0.333190
0.306842
0.325931
0.318375
0.289437
0.254380
0.261443
0.301653
0.286725
0.288821
0.277619
0.317953
0.229277
0.242361
0.246370
0.220661
0.254441
0.222974
0.225112
0.231957
0.226733
0.230277
0.225835
0.208709
0.164950
0.198103
0.213502
0.243533
0.209773
0.248633
0.233710
0.213939
0.192753
0.224749
0.224137
0.239242
0.215340
0.184241
0.158423
0.176565
0.171850
0.141738
0.191177
0.164324
0.130994
0.130410
0.103714
0.085829
0.080434
0.095548
0.082435
0.158210
0.142734
0.170251
0.110395
0.187098
0.127542
0.127764
0.083685
0.057392
0.030170
0.018500
0.058425
-0.001554
0.045846
0.028971
0.042336
-0.024656
0.003106
-0.021447
-0.028708
0.008467
-0.021618
-0.000705
0.018812
0.056330
0.008884
0.034733
-0.010784
0.009752
0.027631
0.013873
-0.010695
0.023742
0.022267
0.020004
0.029105
0.038377
0.032538
-0.011806
-0.007199
-0.034761
-0.030682
-0.054599
-0.036239
-0.024353
0.015894
-0.008285
0.001956
-0.018288
-0.016670
-0.024521
-0.024699
-0.027296
0.014763
-0.000242
0.040003
0.029387
0.044896
-0.003671
0.020307
0.047609
0.069948
0.092705
0.065698
0.039803
0.002365
-0.032115
0.003513
0.017081
-0.002165
-0.026261
0.040037
-0.009887
-0.034830
-0.049999
-0.054353
-0.045125
-0.108317
-0.071446
-0.092663
-0.053374
-0.085746
-0.047957
-0.043583
-0.020219
0.045446
0.079355
0.194093
0.311565
0.444166
0.559737
0.664811
0.753255
0.861751
0.915934
0.964578
1.006256
0.981210
0.882878
0.730530
0.604759
0.465819
0.331847
0.218321
0.074902
0.034977
-0.047330
-0.098492
-0.074999
-0.081174
-0.143505
-0.112177
-0.090858
-0.086962
-0.057804
-0.005904
-0.024767
-0.034605
0.001591
0.031025
0.058209
0.100166
0.128236
0.108891
0.138265
0.120035
0.121521
0.160549
0.135667
0.139269
0.122839
0.125724
0.076956
0.089252
0.116115
0.152885
0.136175
0.187722
0.186006
0.208456
0.179343
0.149989
0.181645
0.171468
0.160134
0.166984
0.182278
0.189338
0.202122
0.230367
0.225597
0.217406
0.233571
0.239255
0.280711
0.285562
0.289389
0.292627
0.301444
0.314493
0.311394
0.324029
0.335654
0.312882
0.260795
0.305329
0.279449
0.320541
0.304890
0.330831
0.313071
0.305455
0.271735
0.280748
0.260952
0.259113
0.278398
0.255867
0.223779
0.266675
0.267769
0.281108
0.284593
0.353907
0.320099
0.333444
0.360626
0.330531
0.325104
0.323110
0.304415
0.277627
0.259968
0.299894
0.252848
0.261666
0.227899
0.246162
0.201570
0.189276
0.246083
0.232539
0.220382
0.199759
0.224153
0.198431
0.164959
0.179379
0.198681
0.161193
0.158786
0.174645
0.132109
0.146091
0.086798
0.094768
0.086744
0.093286
0.095556
0.087557
0.140280
0.110990
0.107378
0.100730
0.094606
0.073944
0.042210
0.071832
0.088135
0.077752
0.045044
0.030023
0.037217
0.025168
0.017087
0.023529
0.066375
0.063978
0.085874
0.052872
0.047400
0.019005
0.043733
-0.003983
0.036936
0.055406
0.052425
0.068385
0.041778
0.008193
-0.051846
0.042086
0.025329
0.023125
0.010094
0.079516
0.027480
-0.004069
0.031629
0.082780
0.036430
0.013587
0.028771
0.001894
-0.008834
0.036793
0.029286
0.027108
0.062722
0.016090
0.063030
0.035998
0.023372
-0.016520
-0.015838
-0.005740
-0.043111
-0.066032
-0.023881
-0.016797
-0.024263
-0.032279
0.015066
-0.032781
0.002607
-0.031159
0.023680
0.049283
0.051565
0.069413
0.077823
0.051068
0.035119
0.034221
-0.003983
-0.017496
-0.009104
0.007625
-0.032902
-0.037369
0.019470
0.044373
0.060379
0.067095
0.110497
0.050798
0.022428
0.004030
-0.021457
-0.011619
-0.080687
-0.002794
0.000987
-0.022943
0.005151
0.016402
-0.019612
-0.049316
0.010715
-0.025197
-0.027746
0.012811
-0.017129
-0.019083
-0.024713
-0.040295
0.015100
0.042999
-0.027798
-0.020972
0.015555
0.021236
-0.019422
-0.012827
0.004835
0.030433
0.022714
0.063403
0.058406
-0.015667
-0.023151
-0.004921
0.013489
0.039087
0.061024
-0.005698
0.059281
0.001179
-0.026052
-0.027555
0.026303
-0.048818
0.012004
0.057898
-0.008819
-0.022946
0.012623
0.024641
-0.009693
0.021748
0.012845
-0.033315
0.055966
0.102156
0.141385
0.191790
0.248987
0.313887
0.387404
0.516187
0.663874
0.807041
0.915948
0.981759
0.971912
0.943223
0.902055
0.782470
0.615822
0.511147
0.322099
0.184911
0.045676
-0.043375
-0.040318
-0.067514
-0.083840
-0.065359
-0.076253
-0.108091
-0.081500
-0.070535
-0.068390
-0.018282
0.025629
0.052230
0.098811
0.058312
0.063669
0.080983
0.093561
0.100660
0.092375
0.103782
0.101633
0.077936
0.098876
0.140597
0.151106
0.181304
0.198201
0.183972
0.177716
0.162264
0.113836
0.133115
0.146149
0.140237
0.190067
0.257424
0.222853
0.239959
0.260874
0.238043
0.224558
0.202005
0.209991
0.222506
0.252432
0.273859
0.294781
0.313788
0.283859
0.294378
0.307763
0.264565
0.240000
0.268087
0.262412
0.277184
0.296747
0.330661
0.332554
0.368708
0.368158
0.345920
0.376738
0.306717
0.317197
0.297546
0.283060
0.273904
0.277423
0.307776
0.266139
0.263747
0.272091
0.249580
0.261612
0.268960
0.296040
0.290249
0.283426
0.281176
0.238725
0.271746
0.304851
0.293938
0.272914
0.212517
0.239951
0.172802
0.139666
0.179147
0.189282
0.203320
0.281779
0.301368
0.259908
0.199753
0.176914
0.121353
0.121074
0.150640
0.199099
0.246777
0.275070
0.245471
0.181854
0.155258
0.172793
0.117209
0.140457
0.117793
0.099693
0.123203
0.070691
0.112314
0.102891
0.047661
0.013316
0.063467
-0.019256
0.023349
0.054125
0.137355
0.112858
0.094110
0.041541
0.066755
0.009922
0.043798
0.091799
0.081104
0.082913
0.102387
0.067201
0.020854
0.029649
0.024038
0.039018
0.059621
0.062838
0.039673
0.066431
0.041804
0.076573
0.055816
0.106651
0.031469
0.025252
0.057487
0.015810
0.026885
0.006683
0.000762
-0.022360
-0.030384
0.005172
-0.003038
0.003383
-0.030850
-0.004675
-0.026232
-0.012837
-0.006549
-0.024167
-0.033220
0.009072
-0.008681
0.026321
0.066673
0.049358
0.034284
-0.004820
-0.006586
-0.068501
-0.046821
-0.026209
-0.013890
0.023855
0.051424
0.017468
-0.018828
-0.056632
-0.038527
-0.045363
-0.007671
0.041710
0.096426
0.078495
0.072982
0.076914
0.035394
0.007838
-0.019914
-0.044285
-0.019637
-0.051856
-0.003584
0.010956
0.044086
0.035188
0.065398
-0.008841
-0.012590
-0.084174
-0.025840
-0.047538
-0.018271
-0.014242
0.016715
0.037695
0.000122
-0.016819
-0.012834
-0.022870
-0.030426
-0.014184
-0.050381
-0.040036
-0.091576
-0.085455
-0.050541
0.013090
0.044531
0.117203
0.188602
0.261967
0.327798
0.446928
0.530685
0.702638
0.767507
0.877690
0.935293
0.934995
0.878330
0.821543
0.732260
0.585836
0.461082
0.349050
0.251634
0.106693
0.046200
0.003402
-0.132329
-0.122655
-0.138881
-0.112987
-0.122885
-0.047253
-0.057640
-0.035586
-0.032043
-0.023387
0.012038
0.020081
0.028311
0.066440
0.073243
0.092118
0.051709
0.047722
0.112021
0.097748
0.123485
0.112784
0.148153
0.149117
0.140456
0.120860
0.178592
0.151979
0.169421
0.164927
0.194273
0.236324
0.240550
0.242239
0.267262
0.223450
0.208413
0.181698
0.172913
0.193708
0.159666
0.165484
0.204915
0.193899
0.188905
0.256478
0.255804
0.283267
0.296795
0.279505
0.255706
0.215532
0.208002
0.200531
0.251178
0.227888
0.290137
0.273302
0.307119
0.310420
0.320121
0.337766
0.333857
0.359219
0.294984
0.391301
0.373307
0.394413
0.376471
0.326726
0.310779
0.302821
0.272852
0.296920
0.275971
0.291555
0.317390
0.304210
0.293025
0.303249
0.299856
0.259666
0.265823
0.283619
0.295707
0.270183
0.289672
0.298572
0.279351
0.277379
0.280267
0.212734
0.197930
0.230115
0.214836
0.193148
0.198393
0.190649
0.149850
0.162448
0.118559
0.165680
0.149489
0.166803
0.145043
0.125026
0.088415
0.156468
0.162567
0.180225
0.169607
0.111177
0.074528
0.025206
0.022516
0.025151
0.022712
-0.024950
-0.024627
-0.020293
-0.029709
0.026326
0.045538
0.146800
0.091823
0.105187
0.040634
0.018703
0.030235
0.045980
-0.044529
-0.000869
0.020389
0.040058
0.035370
0.029094
0.041847
0.032020
-0.007429
-0.040267
0.001315
0.019345
0.033243
0.035405
0.056008
0.040656
0.042954
0.039176
0.023753
0.032702
0.037265
0.016627
-0.005029
-0.038393
-0.039639
-0.020405
0.020530
-0.008725
0.034582
0.054884
0.038031
0.059174
0.021859
0.028501
-0.007179
0.050051
-0.007472
0.044321
0.039130
0.044934
0.002879
-0.036116
-0.017045
-0.065989
-0.054602
-0.063100
0.011366
-0.007968
-0.017411
0.018313
0.009519
-0.067171
-0.017051
-0.002486
-0.027423
-0.016560
-0.000457
-0.040208
-0.009281
-0.031264
-0.035673
0.005316
-0.057339
0.037841
0.006734
0.029056
0.044457
0.049801
0.004173
-0.038938
-0.031825
-0.049570
-0.060856
-0.049394
-0.025305
-0.080073
-0.063121
-0.040340
-0.010755
-0.021333
0.007433
0.015228
-0.078209
-0.059576
-0.026334
-0.051615
-0.056784
-0.030267
-0.035447
-0.053179
-0.024917
-0.024644
-0.012765
0.004030
-0.028064
-0.059394
-0.068465
-0.015687
-0.068894
0.031369
0.017182
0.025691
0.018522
0.031119
-0.026253
-0.014089
-0.006931
0.011977
-0.002584
0.017522
0.055571
0.035620
-0.020390
-0.018752
-0.051612
-0.066081
-0.110262
-0.120537
-0.116844
-0.044456
0.013335
0.062127
0.126360
0.209615
0.345059
0.476605
0.567083
0.659527
0.798783
0.871737
0.927001
0.953317
0.936314
0.836440
0.747079
0.620829
0.475822
0.363856
0.265899
0.050613
0.010520
-0.031593
-0.085390
-0.107505
-0.116241
-0.108958
-0.054580
-0.030951
-0.043718
-0.006132
0.017849
0.025028
0.019314
-0.017022
0.060867
-0.002179
-0.012455
0.042407
0.118560
0.098367
0.137868
0.115875
0.122423
0.138396
0.136256
0.162901
0.174180
0.162719
0.159129
0.138075
0.146391
0.140661
