-0.023414
-0.007642
-0.002445
-0.007105
-0.008033
-0.022144
0.006583
-0.010950
0.001160
0.006364
-0.024216
0.000766
0.005965
-0.000041
0.022546
0.030858
-0.009708
-0.000298
0.007637
-0.002437
-0.017251
-0.003163
0.031392
-0.006279
0.003697
-0.007703
0.007612
-0.002838
0.025419
-0.001490
0.015710
0.003021
0.013633
0.019749
0.001111
0.001357
0.030257
0.010546
0.015471
0.024556
-0.007486
-0.002908
0.012410
0.017586
0.005725
0.042618
0.015269
0.027922
0.024467
0.056444
0.022391
0.070043
0.034954
0.076760
0.067830
0.095682
0.103053
0.089599
0.103075
0.155076
0.134958
0.134536
0.141374
0.160065
0.143053
0.150819
0.140295
0.139301
0.143402
0.174196
0.119477
0.091033
0.110489
0.106762
0.111293
0.110490
0.087259
0.109801
0.046824
0.048137
0.064218
0.066414
0.050296
0.049776
0.028748
0.023662
0.008807
0.017652
-0.000224
-0.013146
-0.002485
0.019353
0.006270
0.004062
0.004924
0.005997
0.021741
0.017911
-0.003231
-0.010818
-0.026235
-0.018155
-0.014681
-0.028396
0.004150
-0.021858
0.003451
-0.007482
0.002593
-0.004699
0.009360
-0.008127
-0.033348
-0.014179
-0.000971
-0.004396
0.001494
0.006185
-0.020500
-0.001111
-0.011876
-0.012361
-0.002790
-0.009045
-0.024592
0.031276
0.004179
-0.015943
-0.031524
-0.046089
-0.043824
-0.063752
-0.048713
-0.038900
-0.035918
-0.015771
0.059397
0.109917
0.167844
0.269539
0.384900
0.467480
0.615042
0.727469
0.833537
0.901155
1.000832
0.972463
0.948767
0.868357
0.736855
0.617232
0.502238
0.362973
0.231916
0.089029
0.032446
-0.015950
-0.078484
-0.139230
-0.164250
-0.131852
-0.093060
-0.088001
-0.063699
-0.028205
0.003091
-0.002591
0.032939
0.057517
0.072305
0.043116
0.086328
0.078162
0.078090
0.106581
0.107254
0.101374
0.127762
0.109615
0.116308
0.145882
0.107016
0.144059
0.170518
0.148290
0.180116
0.131270
0.161850
0.161960
0.163894
0.180614
0.175224
0.173604
0.188337
0.197986
0.190243
0.182998
0.205768
0.215890
0.208957
0.228906
0.259957
0.237523
0.255559
0.277555
0.273076
0.260327
0.289357
0.267430
0.272139
0.281951
0.275703
0.282305
0.299576
0.270786
0.279429
0.298701
0.288380
0.287778
0.300172
0.306041
0.294855
0.310191
0.320057
0.288351
0.305917
0.283968
0.279364
0.262816
0.285110
0.333111
0.281099
0.305092
0.288166
0.294493
0.270557
0.265439
0.267225
0.293106
0.254631
0.266133
0.255001
0.250906
0.249404
0.247841
0.225948
0.237661
0.193874
0.205361
0.198630
0.191744
0.205006
0.197305
0.196150
0.172044
0.172001
0.196429
0.174343
0.158208
0.148580
0.162925
0.158374
0.157105
0.111486
0.132918
0.139773
0.139300
0.110561
0.126457
0.114033
0.114061
0.076786
0.094713
0.095507
0.065855
0.078553
0.059155
0.090154
0.080118
0.064577
0.048905
0.061061
0.034446
0.061439
0.039387
0.028661
0.035787
0.053513
0.062707
0.024429
0.023637
0.028946
0.028222
0.049123
0.015253
0.019247
0.020969
0.038352
0.016820
0.046125
0.036510
0.014348
0.010579
0.021909
0.039042
-0.003189
0.003494
0.013219
0.025216
-0.008682
0.005818
0.027680
0.015290
-0.013128
-0.000269
0.035245
-0.000987
-0.024997
0.018747
0.003949
-0.007254
0.020840
0.003794
0.017160
0.007745
0.011964
0.000352
0.016308
0.023318
-0.015608
0.014254
0.009543
-0.005511
-0.003316
-0.015534
0.018508
-0.011608
0.012137
-0.023013
-0.015599
-0.019277
-0.008067
0.000425
-0.005487
0.022469
0.005756
-0.001413
0.009754
-0.004120
0.016702
0.033007
-0.012135
0.009854
0.011627
-0.006774
0.009401
-0.029126
-0.015922
-0.011416
-0.012817
0.010881
-0.012611
-0.016938
0.010718
-0.007881
0.005515
-0.013341
-0.007283
-0.021066
0.003780
-0.023996
-0.002015
-0.018301
-0.015136
-0.001427
0.018634
0.012418
0.016523
-0.000994
0.004767
0.034656
0.014451
0.010762
0.018518
0.002719
-0.010128
0.022078
0.012006
0.037016
0.049922
0.036779
0.060353
0.065685
0.069898
0.089305
0.085709
0.102640
0.087783
0.104233
0.101040
0.135766
0.122178
0.138882
0.141461
0.142182
0.143693
0.154505
0.148665
0.150282
0.146001
0.129407
0.153226
0.126275
0.128430
0.098910
0.122350
0.074692
0.116009
0.071177
0.054510
0.076009
0.042581
0.038870
0.066384
0.024289
0.005456
0.022341
0.023934
0.048932
0.002379
0.047009
0.016684
-0.000411
0.004899
-0.006188
-0.019122
-0.008426
0.004119
0.000683
0.023677
0.023321
-0.016387
-0.021431
0.005637
-0.005065
-0.005436
-0.030896
-0.008909
0.019324
0.011192
-0.008056
-0.002402
-0.011893
-0.020705
0.031156
-0.003550
0.022819
-0.001713
0.020952
-0.024440
0.009055
0.003507
-0.001381
0.010414
-0.026048
0.012637
-0.019988
-0.004481
-0.042697
-0.018330
0.002563
-0.067375
-0.045494
-0.051662
-0.056731
-0.022951
0.007576
0.054868
0.107348
0.162429
0.265773
0.392814
0.480860
0.620955
0.718505
0.857261
0.903488
0.944378
0.946458
0.932039
0.840614
0.745976
0.607295
0.495093
0.376322
0.231920
0.112522
-0.003092
-0.073522
-0.112198
-0.148192
-0.123700
-0.144401
-0.105902
-0.080655
-0.073055
-0.035348
-0.002945
-0.011862
0.034095
0.032927
0.070831
0.048932
0.076036
0.081947
0.070738
0.048295
0.092570
0.091974
0.100132
0.107029
0.107336
0.128998
0.130494
0.122760
0.125243
0.134776
0.148862
0.131828
0.141399
0.168769
0.159611
0.188425
0.174037
0.202838
0.195457
0.173400
0.212382
0.192011
0.219518
0.206396
0.265289
0.253672
0.234457
0.262923
0.220864
0.256418
0.251802
0.280495
0.250843
0.266063
0.300114
0.270886
0.295316
0.288563
0.307403
0.281631
0.299408
0.307969
0.287819
0.265628
0.310376
0.317825
0.295033
0.268861
0.329305
0.286846
0.313576
0.308414
0.297955
0.287095
0.310148
0.302608
0.281377
0.311032
0.291432
0.285195
0.289823
0.275544
0.261165
0.237842
0.288731
0.251684
0.275851
0.241382
0.257207
0.269989
0.236496
0.241185
0.221884
0.224634
0.220306
0.243755
0.215175
0.184566
0.191772
0.206121
0.194957
0.176263
0.172822
0.142053
0.128243
0.138279
0.125803
0.156261
0.125467
0.123303
0.109784
0.131757
0.081914
0.108878
0.105459
0.094261
0.102056
0.076791
0.079590
0.092566
0.072166
0.094709
0.074107
0.079515
0.069689
0.070628
0.047162
0.076028
0.069139
0.033957
0.050543
0.027662
0.041876
0.033137
0.047453
0.044804
0.033168
0.000637
0.022075
0.028519
0.032598
0.044103
0.021338
0.036508
-0.005090
0.026182
0.046043
-0.004622
0.009346
-0.017066
0.008405
-0.000406
0.002605
-0.004028
0.011923
0.010931
-0.002271
0.018055
0.016873
-0.006491
0.003768
-0.011352
0.010444
0.021750
0.018734
-0.005651
-0.004807
-0.013008
0.016035
0.001686
0.011745
-0.008161
-0.003000
-0.021595
-0.013425
0.019457
0.013352
-0.012551
-0.017374
0.009569
0.009148
-0.002114
-0.002575
-0.007013
0.007618
-0.006752
-0.004113
-0.020023
-0.013565
0.006824
0.006264
-0.000415
0.020483
0.009223
0.026043
0.014257
-0.021269
0.011718
-0.008431
0.023543
0.004704
0.013654
0.010174
0.016969
0.011225
0.008630
0.003017
-0.004296
0.018451
0.014029
-0.013227
0.021249
0.000778
-0.010903
-0.016596
-0.017628
-0.011040
0.003027
0.027651
0.006546
0.021700
0.002354
0.022040
-0.000396
0.015221
-0.006908
0.016147
0.026132
0.010223
0.021215
-0.003578
0.031600
0.021175
0.032747
0.015014
0.022403
0.049247
0.043588
0.077160
0.075119
0.065474
0.101251
0.047890
0.118045
0.125909
0.108415
0.127353
0.149052
0.168921
0.139718
0.153360
0.154354
0.173899
0.143434
0.141201
0.151044
0.122895
0.122748
0.106539
0.135321
0.096905
0.113235
0.091186
0.078562
0.065354
0.052564
0.061850
0.049256
0.053567
0.025986
0.012120
0.009006
0.018498
-0.005560
0.026091
-0.007405
-0.012615
0.014087
-0.004000
-0.000980
0.044475
0.014916
-0.011077
0.014078
-0.004699
0.002144
-0.003651
0.000073
-0.008071
-0.018202
0.006037
-0.004730
-0.028332
-0.022205
0.008440
0.016655
-0.019292
0.019309
-0.011164
0.012860
0.011311
0.007405
0.000218
0.024620
0.008485
-0.013212
0.013910
0.003856
0.014482
-0.014821
0.019977
-0.011969
-0.027176
-0.017728
-0.016787
-0.046781
-0.030002
-0.051171
-0.046151
-0.032319
-0.015064
-0.005171
0.034127
0.084067
0.158582
0.243357
0.359184
0.479453
0.617924
0.753714
0.829203
0.930753
0.967633
0.948597
0.919033
0.862806
0.726128
0.647251
0.501639
0.336747
0.231967
0.126013
0.040091
-0.064445
-0.118971
-0.122039
-0.121001
-0.139608
-0.115654
-0.081875
-0.057276
-0.020051
-0.009284
0.023163
0.019155
0.030872
0.026612
0.099452
0.068848
0.091409
0.104424
0.092399
0.098560
0.097198
0.082546
0.119306
0.108023
0.098870
0.163335
0.126840
0.131759
0.151402
0.161386
0.143490
0.155707
0.168626
0.155557
0.190794
0.159867
0.200257
0.215943
0.214713
0.158341
0.186955
0.219940
0.240109
0.207067
0.213067
0.257479
0.260741
0.236845
0.242459
0.256542
0.279273
0.283272
0.272855
0.289917
0.275698
0.275181
0.273778
0.276845
0.292060
0.293092
0.297879
0.275801
0.309753
0.294817
0.291702
0.296131
0.310384
0.273547
0.297782
0.308261
0.288066
0.296567
0.287524
0.290952
0.272423
0.281324
0.267272
0.273239
0.285823
0.275502
0.277739
0.279868
0.241928
0.258886
0.238035
0.252290
0.254617
0.234039
0.251757
0.280942
0.250512
0.238509
0.174023
0.208735
0.201961
0.219454
0.198358
0.206456
0.167900
0.171674
0.181368
0.186127
0.181972
0.140388
0.153524
0.133773
0.140789
0.136259
0.165309
0.144433
0.108351
0.120209
0.108597
0.105962
0.074970
0.119185
0.085408
0.081601
0.107761
0.074517
0.070528
0.078118
0.097997
0.059553
0.059678
0.057531
0.033968
0.046029
0.066596
0.019704
0.064847
0.042154
0.050297
0.037633
0.031623
0.045482
0.066019
0.013761
0.024253
0.057459
0.010778
0.027684
0.037861
0.018194
0.005520
0.021525
0.032928
0.016383
0.016872
0.024396
0.006861
-0.013510
0.018947
0.003227
-0.009269
0.008270
0.019151
0.024723
-0.017448
0.001707
-0.000205
-0.008640
-0.005052
-0.013692
0.018173
-0.000228
0.013458
-0.010121
0.004759
0.033526
-0.038591
-0.022139
-0.023875
0.010165
-0.020612
-0.004051
-0.012848
0.014729
0.005265
-0.014011
0.026528
0.016441
0.011889
0.018518
0.001728
0.011097
0.003861
0.006860
0.000303
0.031495
-0.018938
-0.008773
-0.001699
0.009811
0.019016
-0.029709
0.018750
-0.026150
-0.007523
0.029690
-0.017069
-0.009752
-0.002294
-0.004599
0.011561
0.018801
-0.012059
0.007807
0.021722
0.014047
-0.018159
0.002815
0.017673
0.031898
0.008702
0.014873
-0.015923
0.001100
0.000389
0.005547
0.020347
0.005856
-0.000491
-0.023178
0.025305
0.018499
0.018824
0.033873
0.003923
0.007917
0.026390
0.007670
0.030220
0.010346
0.041012
0.027550
0.040532
0.056401
0.062185
0.072393
0.093222
0.089435
0.101304
0.114591
0.134960
0.133754
0.159521
0.155352
0.157489
0.151084
0.145614
0.133465
0.169527
0.137949
0.159316
0.114773
0.116345
0.104992
0.135849
0.080540
0.090020
0.087041
0.092168
0.054689
0.058060
0.072110
0.029285
0.038511
0.023595
0.044907
0.025854
0.013759
-0.001707
0.035983
-0.013722
0.002771
0.008193
-0.016463
-0.002052
-0.007267
-0.005868
-0.014920
-0.017355
-0.014630
-0.016556
-0.028540
-0.004532
0.013889
-0.011745
-0.010101
-0.007718
0.013315
-0.021337
-0.015709
-0.018198
-0.017764
0.006121
0.012578
-0.009076
-0.020807
0.012376
-0.009590
-0.006420
-0.006450
0.019190
0.006724
0.001046
0.009635
-0.025238
0.010194
0.007618
0.004923
-0.013384
-0.012639
-0.051783
-0.055459
-0.036297
-0.040206
-0.046507
-0.018612
-0.015668
0.038819
0.059935
0.170328
0.241184
0.350965
0.499261
0.618676
0.752702
0.838300
0.935565
0.966948
0.958112
0.952906
0.855409
0.751988
0.619361
0.498721
0.377329
0.207597
0.118696
0.009825
-0.057021
-0.131834
-0.135156
-0.162813
-0.146459
-0.119747
-0.078412
-0.092110
-0.040528
0.004864
0.036193
0.005048
0.013032
0.088574
0.033748
0.082984
0.080651
0.048302
0.080684
0.109710
0.091203
0.113657
0.129723
0.100332
0.101685
0.116126
0.110175
0.130751
0.151798
0.139808
0.118122
0.154657
0.150427
0.152513
0.173542
0.176225
0.204372
0.171726
0.199469
0.222504
0.221702
0.213230
0.228095
0.224420
0.211672
0.256287
0.222948
0.254057
0.254301
0.236810
0.252408
0.289604
0.287840
0.254574
0.266275
0.275496
0.279027
0.263449
0.301406
0.282967
0.269810
0.287174
0.308549
0.281916
0.277627
0.279974
0.294959
0.299433
0.302310
0.284643
0.281707
0.288394
0.298385
0.305557
0.303481
0.265803
0.307942
0.309058
0.269403
0.294495
0.273577
0.247328
0.306832
0.250930
0.274334
0.266688
0.245214
0.253619
0.247236
0.248566
0.221448
0.232603
0.171962
0.198748
0.207950
0.182141
0.194299
0.189269
0.209218
0.165500
0.175373
0.143434
0.158849
0.171149
0.163501
0.162657
0.148387
0.155349
0.132265
0.135318
0.093888
0.131825
0.110984
0.099929
0.097167
0.087307
0.104483
0.090621
0.090811
0.075883
0.073977
0.069264
0.065460
0.069761
0.050450
0.086133
0.057592
0.064002
0.072479
0.060771
0.029559
0.041654
0.055510
0.062942
0.031681
0.032777
0.061697
0.019798
-0.002960
0.025643
0.022732
0.051076
-0.003768
-0.006537
0.005690
0.005291
0.018659
-0.000211
0.011889
-0.003780
0.001758
-0.024193
0.028902
0.000459
-0.014043
0.031140
0.015656
0.000105
-0.003039
0.021413
0.015249
0.004853
0.011180
-0.010165
-0.014526
0.015951
0.005327
0.006019
0.020822
0.042259
0.013397
0.024181
0.008174
0.011631
0.020899
0.009966
0.001230
0.009122
0.006858
0.012943
-0.020765
0.009780
-0.008923
-0.007832
-0.002843
0.011429
0.009684
0.011198
0.002026
0.012069
-0.007876
0.013169
0.032711
-0.001966
0.000069
-0.000920
-0.011473
-0.006159
-0.010860
0.013409
0.038135
-0.046174
-0.001255
0.033695
0.019630
-0.003411
0.009085
-0.009566
0.011313
0.018250
-0.020523
-0.003689
-0.031738
-0.005572
-0.023494
-0.008953
-0.002032
-0.013153
0.008418
-0.006358
0.021011
-0.003888
0.025161
-0.005765
0.027527
0.017198
-0.005818
0.016628
0.017169
0.021394
0.023691
0.000299
0.013577
0.028041
0.074826
0.048851
0.047823
0.052603
0.077979
0.080098
0.087144
0.121678
0.129095
0.096097
0.116291
0.115678
0.135223
0.134459
0.156885
0.153945
0.131406
0.132119
0.154800
0.130272
0.148170
0.127257
0.107976
0.115025
0.118724
0.106855
0.106514
0.115861
0.095955
0.072001
0.038770
0.050522
0.027228
0.035446
0.040074
0.004657
0.043316
0.007729
0.033629
0.039263
-0.012004
0.032632
-0.035431
-0.026023
-0.009111
0.028177
-0.008703
-0.001010
0.000055
0.003008
0.013003
-0.007601
0.017803
-0.000419
0.000169
-0.015925
-0.007926
-0.030543
0.008439
-0.001978
0.021836
0.003599
0.005762
0.037172
0.007929
0.006935
0.028634
0.027281
-0.004490
-0.016471
0.003313
-0.002324
-0.002930
0.000719
0.005575
0.019719
-0.007739
0.016803
-0.016385
-0.026863
-0.029535
-0.030961
-0.058252
-0.068335
-0.038922
-0.028955
-0.001022
0.021450
0.087956
0.212234
0.267452
0.370501
0.446332
0.596709
0.727120
0.829154
0.898652
0.950212
0.956580
0.928718
0.871583
0.745085
0.654689
0.499589
0.374660
0.216746
0.109520
0.004489
-0.083074
-0.095148
-0.146759
-0.110306
-0.129328
-0.082765
-0.087755
-0.062627
-0.029564
0.010627
-0.016935
0.014369
0.006109
0.067664
0.080343
0.055700
0.087990
0.081426
0.079173
0.108750
0.100828
0.121242
0.113166
0.114594
0.133329
0.140726
0.117708
0.146860
0.121156
0.157353
0.159692
0.160345
0.139798
0.168296
0.179605
0.191018
0.179026
0.191765
0.171863
0.216191
0.210945
0.189935
0.226780
0.235899
0.244008
0.178939
0.238876
0.232848
0.243974
0.251089
0.253699
0.274954
0.275384
0.274743
0.263675
0.279386
0.285087
0.282700
0.289592
0.293161
0.271213
0.292719
0.300063
0.312992
0.306763
0.313020
0.297334
0.309684
0.300171
0.290252
0.282820
0.303272
0.292139
0.299207
0.273549
0.298643
0.286527
0.292473
0.308357
0.274681
0.272021
0.263378
0.274184
0.260714
0.252954
0.261641
0.253779
0.270027
0.253553
0.245113
0.229987
0.260373
0.218376
0.239047
0.180887
0.191160
0.197969
0.192909
0.168186
0.178159
0.174049
0.170694
0.156944
0.149737
0.141029
0.146242
0.154600
0.134685
0.109025
0.119147
0.110611
0.123682
0.107707
0.136613
0.112180
0.092899
0.118971
0.098399
0.054369
0.085803
0.088115
0.085144
0.055577
0.060380
0.048950
0.058006
0.066601
0.018504
0.032288
0.063281
0.042572
0.042155
0.051230
0.025713
0.042600
0.004056
0.010489
0.041797
0.010781
0.023323
0.027811
0.019062
0.004624
0.023427
0.003424
-0.007995
0.013005
0.011721
0.005335
0.024371
0.011666
0.019927
-0.001523
0.001347
-0.007840
-0.007027
0.024534
0.006643
0.014841
-0.012418
-0.001899
-0.004477
-0.005070
0.001432
0.003067
-0.001579
0.012612
-0.002358
0.002002
-0.019711
-0.007790
0.009359
-0.008102
0.002123
-0.013284
-0.029494
-0.006897
0.012383
0.021530
-0.005587
0.017858
0.005256
0.003583
0.005072
0.009026
0.010019
-0.014188
-0.014533
0.009317
0.001816
-0.011264
-0.003030
0.019986
-0.004756
-0.003913
-0.009106
0.015097
0.015799
-0.011848
0.019090
0.047688
-0.011601
0.005416
-0.016226
-0.000552
-0.022929
0.001652
0.020649
0.005101
0.016671
-0.018595
-0.016641
-0.002237
-0.006486
0.001382
-0.007723
0.006021
0.025173
-0.020138
-0.011591
0.000719
0.004841
-0.000525
0.004397
-0.006481
0.014585
0.010231
0.004886
0.013257
0.014270
0.016090
0.029668
0.020513
0.030778
0.032393
0.039311
0.067036
0.067681
0.061339
0.060277
0.080891
0.110967
0.109724
0.139628
0.090885
0.147772
0.109887
0.147586
0.114062
0.135729
0.143289
0.165319
0.163724
0.173388
0.149608
0.133094
0.130022
0.119896
0.114022
0.116080
0.064253
0.086586
0.073429
0.058067
0.070529
0.037126
0.046368
0.017322
0.035407
0.025465
0.014392
0.011637
-0.007278
0.020672
-0.004463
-0.016878
0.018693
-0.020489
-0.002063
-0.008542
0.005029
-0.015858
-0.011373
0.011315
-0.012519
0.009762
0.016128
-0.001004
-0.022729
-0.018657
0.001486
0.007855
-0.007867
-0.012602
0.011072
0.023660
0.031171
-0.001972
0.011862
0.016069
0.013199
0.020761
-0.013507
0.010137
-0.016423
0.014723
0.015310
-0.012174
-0.019077
-0.023003
-0.044634
-0.028819
-0.042481
-0.014040
-0.029368
-0.027421
-0.042886
-0.051701
-0.019652
-0.007537
-0.020210
0.039967
0.082924
0.195406
0.287392
0.372745
0.486811
0.607024
0.743176
0.825645
0.907610
0.959585
0.965658
0.943266
0.881352
0.745938
0.636104
0.491950
0.372899
0.220717
0.094594
0.004899
-0.071648
-0.093837
-0.128235
-0.127607
-0.135926
-0.124915
-0.070417
-0.056050
-0.048471
-0.029404
0.023047
0.036558
0.044026
0.061346
0.050986
0.096920
0.077381
0.063965
0.070169
0.083275
0.088262
0.106361
0.140618
0.114192
0.115182
0.132115
0.123944
0.142885
0.150427
0.142066
0.125979
0.146307
0.166878
0.182872
0.172399
0.186850
0.170599
0.175787
0.204548
0.193069
0.204320
0.219213
0.207527
0.215426
0.257612
0.228355
0.224709
0.242138
0.242524
0.248198
0.249244
0.251606
0.281263
0.262185
0.274953
0.282615
0.275320
0.284088
0.278091
0.296615
0.286705
0.272874
0.303407
0.306525
0.274602
0.324151
0.290304
0.332016
0.300056
0.310056
0.324032
0.310500
0.313031
0.289844
0.294723
0.276950
0.267738
0.282874
0.266283
0.285982
0.272877
0.272809
0.268765
0.263768
0.269551
0.256759
0.260471
0.274637
0.243312
0.231916
0.241556
0.193817
0.224765
0.224321
0.187693
0.192671
0.202050
0.175522
0.202587
0.198392
0.187638
0.164905
0.151685
0.148947
0.191177
0.148564
0.126641
0.125205
0.145160
0.118211
0.105308
0.139653
0.103207
0.118374
0.103346
0.098404
0.091875
0.088318
0.073765
0.067553
0.082358
0.066994
0.061276
0.090278
0.067623
0.074503
0.050127
0.050171
0.061292
0.033559
0.026898
0.063864
0.044640
0.035313
0.021862
0.041435
0.011005
0.017732
-0.005753
-0.006406
0.007249
0.018072
0.008918
-0.007860
0.016661
0.004364
0.018571
-0.003272
0.024141
0.001374
-0.002618
0.020319
-0.002934
-0.004308
0.000269
0.004868
0.005525
0.009231
-0.002083
0.044550
-0.008609
0.003860
-0.009891
0.000240
0.020992
0.011443
0.001602
-0.013278
0.010154
-0.007855
0.027844
-0.027557
-0.018075
0.002304
-0.002539
0.009354
0.023162
0.011166
0.006246
0.007449
0.022342
-0.003440
-0.015799
-0.008558
0.013222
-0.034386
0.000687
-0.006668
0.003486
0.010261
-0.003715
-0.013356
0.014316
0.008137
0.017797
-0.007522
-0.002704
-0.002611
0.019569
0.002032
-0.000596
-0.029425
-0.013233
0.008586
0.000959
-0.001457
-0.001418
-0.017789
-0.022042
0.012205
0.005830
0.020910
0.025977
0.018215
0.007233
0.020562
-0.009224
-0.004593
0.009859
-0.004092
0.017306
0.017106
-0.032117
0.000385
0.014460
0.006268
0.028348
-0.001323
0.012139
0.017439
0.000934
0.004270
0.038909
0.045431
0.057418
0.054147
0.056195
0.046416
0.062761
0.050014
0.096934
0.093093
0.128077
0.103339
0.114506
0.121774
0.131004
0.123720
0.154306
0.116997
0.148266
0.162346
0.162778
0.126153
0.134097
0.132455
0.146189
0.102228
0.110357
0.097244
0.085968
0.100423
0.090156
0.059225
0.051806
0.055591
0.058689
0.058198
0.032714
0.020322
-0.001626
0.022127
-0.011427
0.017554
-0.000139
-0.002985
0.013267
0.016242
-0.006032
0.010630
-0.001993
0.008565
0.004403
0.005228
-0.015274
0.010490
0.010665
0.003711
-0.019238
0.024875
0.019299
0.004901
-0.006964
0.004097
-0.008521
0.004392
0.015763
-0.015420
-0.006784
-0.003541
-0.011350
0.011564
-0.008075
0.002391
-0.029039
-0.002083
-0.018135
-0.002180
0.002335
-0.001404
0.011033
-0.014378
-0.007882
-0.036897
-0.045947
-0.040482
-0.058461
-0.061762
-0.029059
-0.022194
0.007185
0.058103
0.088188
0.177928
0.253313
0.367318
0.499092
0.590908
0.732192
0.821556
0.909837
0.962745
0.965171
0.943064
0.846399
0.768826
0.620730
0.473195
0.371595
0.207062
0.111886
0.029149
-0.070747
-0.092613
-0.138716
-0.124809
-0.123976
-0.086668
-0.122164
-0.047736
-0.046305
-0.036622
0.002989
0.042466
0.027477
0.065713
0.071749
0.069649
0.063290
0.092029
0.088748
0.107028
0.082669
0.119237
0.085720
0.107185
0.105444
0.135436
0.152537
0.149356
0.144012
0.167681
0.137980
0.157522
0.188739
0.156686
0.155813
0.215245
0.166666
0.203981
0.192760
0.176377
0.217822
0.229253
0.190005
0.224536
0.225940
0.228955
0.261471
0.241862
0.252916
0.223934
0.279059
0.259495
0.294709
0.283781
0.274713
0.284694
0.284036
0.290366
0.299248
0.292237
0.296392
0.301790
0.293018
0.300751
0.302603
0.309137
0.317002
0.293003
0.293061
0.311848
0.292963
0.293513
0.286632
0.322667
0.271072
0.293969
0.304236
0.290410
0.261155
0.267318
0.254716
0.297764
0.270868
0.259701
0.236807
0.254591
0.277574
0.259632
0.251390
0.246692
0.220977
0.234571
0.207873
0.235014
0.197055
0.188916
0.203036
0.226948
0.172078
0.179873
0.175585
0.165083
0.153283
0.165160
0.141620
0.153871
0.135316
0.121535
0.140165
0.125533
0.102307
0.100611
0.082505
0.119170
0.125473
0.097395
0.072046
0.095776
0.071137
0.056277
0.088706
0.079468
0.075836
0.061561
0.073664
0.072024
0.069208
0.037226
0.055532
0.086106
0.026863
0.025881
0.051640
0.013283
0.025312
0.043217
0.059604
0.020609
0.020042
0.023439
0.014887
0.030842
0.033858
0.012344
0.015375
0.005449
0.013711
0.022802
0.011164
-0.019067
0.014868
-0.008222
-0.001701
-0.009215
0.002272
0.027539
0.028541
0.005618
0.005694
-0.017806
-0.020568
-0.006620
-0.008661
-0.028836
-0.002533
0.006792
-0.021425
0.010177
0.003233
-0.021900
-0.006189
-0.017287
-0.026518
-0.015819
-0.000200
0.001450
-0.006263
-0.004688
-0.003491
0.010808
0.003882
-0.022680
-0.016504
-0.008504
-0.018063
0.012792
-0.022870
0.006070
-0.042604
-0.017491
-0.021818
-0.003692
0.010555
-0.020649
0.001308
0.001869
0.010107
0.012749
0.005674
-0.001448
-0.001503
-0.000202
-0.003262
0.017884
0.004761
0.012039
-0.004705
0.020786
-0.006785
-0.019533
-0.019587
-0.016563
0.002232
-0.003301
-0.014119
-0.011439
0.007375
0.005985
-0.007752
-0.007851
0.007725
0.010648
0.012340
-0.002768
0.005182
0.003990
-0.016934
0.027039
0.006964
0.024649
0.019211
-0.000897
0.045475
0.052444
0.053721
0.054763
0.045447
0.057121
0.100246
0.052308
0.069575
0.113667
0.096898
0.120716
0.122091
0.136378
0.154319
0.141346
0.138168
0.151174
0.160079
0.138459
0.168334
0.137984
0.137305
0.144716
0.112441
0.112191
0.117420
0.088184
0.094550
0.097352
0.080891
0.062001
0.068505
0.053637
0.052074
0.044614
0.036839
0.037206
0.013117
0.020378
0.017465
0.004825
0.004120
-0.028353
0.004871
-0.009685
0.021938
0.009811
0.003780
0.009230
0.007103
-0.003798
0.007845
-0.020493
0.029040
0.007957
0.008612
0.004183
-0.006387
-0.012344
0.003148
-0.017666
0.009266
-0.008852
-0.010134
0.031823
0.028369
0.010468
0.019219
-0.022115
0.005635
0.024199
-0.010264
-0.025478
0.008442
0.002368
0.018620
-0.026124
-0.016161
-0.029648
-0.007365
-0.019646
-0.054275
-0.042589
-0.018341
-0.035993
-0.025951
-0.050623
-0.013296
-0.000933
0.110449
0.177189
0.263525
0.398825
0.495469
0.603737
0.737727
0.849994
0.926390
0.964016
0.955376
0.942545
0.880198
0.777863
0.648881
0.504085
0.374878
0.226685
0.112620
0.012475
-0.066050
-0.089230
-0.141294
-0.120615
-0.128642
-0.116922
-0.085640
-0.033828
-0.015997
-0.004213
0.010729
0.036721
0.030425
0.071214
0.046103
0.074755
0.091149
0.080206
0.064226
0.090142
0.090686
0.131359
0.089350
0.098915
0.122683
0.118242
0.121635
0.123318
0.179829
0.150317
0.152926
0.155996
0.180274
0.173848
0.161515
0.191182
0.208054
0.187150
0.200990
0.213610
0.227179
0.226916
0.229301
0.201117
0.218570
0.232924
0.256320
0.255905
0.264091
0.269639
0.235178
0.269019
0.297383
0.270366
0.264528
0.284227
0.277757
0.297998
0.283014
0.294864
0.306644
0.271350
0.274560
0.298119
0.304131
0.301774
0.295028
0.292667
0.299091
0.322986
0.287691
0.316209
0.292414
0.310459
0.286866
0.288936
0.305307
0.282339
0.269343
0.254760
0.285861
0.285541
0.269576
0.268663
0.256865
0.244279
0.223709
0.235098
0.245937
0.205176
0.233501
0.219080
0.211618
0.212340
0.217227
0.195576
0.203513
0.167720
0.204762
0.200552
0.191914
0.145596
0.163918
0.180075
0.134397
0.119174
0.142547
0.115434
0.121334
0.112915
0.137527
0.119053
0.106566
0.103224
0.125367
0.098654
0.101890
0.056099
0.098788
0.075392
0.099399
0.076635
0.034835
0.068975
0.046520
0.066829
0.043907
0.036103
0.042729
0.055519
0.027421
0.062947
0.034096
0.019137
0.033593
0.025828
0.036962
0.021872
0.007481
0.030655
0.040766
-0.010245
0.030790
-0.001899
0.007911
0.003130
0.022367
0.010742
0.014759
0.010768
0.039527
-0.009473
0.022100
-0.000257
0.015211
0.010644
0.006545
0.005830
-0.016962
0.011356
-0.010065
0.026412
0.002764
0.012526
-0.013768
0.006033
-0.000208
-0.013810
0.004466
0.015928
0.020133
-0.002584
-0.017758
-0.000369
0.008398
0.016436
-0.006912
-0.006894
-0.005178
-0.012628
-0.015599
-0.011459
0.020567
0.000319
0.007216
0.016408
-0.021228
-0.009004
0.021637
0.007034
-0.002604
-0.000800
0.002176
0.002628
0.004670
0.017803
0.004442
0.003157
0.002553
-0.004348
0.002200
-0.012549
-0.001916
-0.014916
0.021614
0.002679
0.006488
0.002207
0.008934
0.013470
0.009486
0.008248
0.009355
0.024045
0.013638
-0.019774
-0.003047
-0.009353
0.008566
0.007459
-0.013776
-0.000631
-0.000709
-0.006332
-0.012689
0.003621
0.030080
0.000309
0.021614
0.008453
0.004361
0.027467
0.045328
0.009226
0.060751
0.050342
0.051446
0.058464
0.072520
0.068574
0.099735
0.099002
0.105052
0.105866
0.149427
0.114434
0.130241
0.115896
0.128228
0.176183
0.136377
0.146889
0.142798
0.178169
0.129519
0.123563
0.148081
0.105332
0.123066
0.127107
0.102751
0.079991
0.040071
0.103851
0.073194
0.018973
0.064010
0.025201
0.034097
0.018171
0.011533
0.027420
-0.007512
0.005623
0.000900
0.042330
0.001458
-0.000651
0.025122
-0.013410
-0.038092
-0.014766
0.003181
-0.020132
0.003797
0.021705
-0.010260
0.010749
0.004524
0.017255
0.024240
0.017688
0.001442
0.001442
-0.002380
0.001601
0.018781
-0.005034
0.001516
0.018759
0.017467
0.013570
0.012524
-0.010251
-0.006905
-0.000901
0.003465
-0.006221
0.000629
0.011215
-0.003099
-0.039896
-0.016146
-0.009330
0.009289
-0.046208
-0.043814
-0.059437
-0.044992
-0.047690
0.002529
0.041195
0.123190
0.149826
0.260099
0.359276
0.484449
0.635017
0.708757
0.829606
0.893403
0.966290
0.974892
0.923858
0.838864
0.763150
0.637559
0.506836
0.364746
0.201861
0.102256
0.011554
-0.068007
-0.109171
-0.128510
-0.123681
-0.152294
-0.099208
-0.099268
-0.069647
-0.010566
0.016950
-0.003317
0.024909
0.038883
0.056585
0.052052
0.074675
0.083024
0.097953
0.086908
0.068486
0.067007
0.121744
0.115363
0.141922
0.142326
0.120962
0.151512
0.123485
0.135474
0.157235
0.151978
0.164117
0.143106
0.183334
0.164310
0.188962
0.202360
0.213879
0.194625
0.180888
0.228848
0.191940
0.213719
0.236670
0.215075
0.237829
0.219857
0.257712
0.277717
0.254739
0.228987
0.277656
0.288775
0.261618
0.282652
0.279232
0.286288
0.262260
0.273512
0.295697
0.326579
0.288284
0.270140
0.289158
0.278618
0.327329
0.307423
0.296141
0.326597
0.290164
0.319918
0.282164
0.275789
0.288892
0.307787
0.279523
0.289367
0.303149
0.276860
0.283135
0.275145
0.277034
0.260540
0.298049
0.256068
0.280759
0.249901
0.254897
0.238384
0.232200
0.233843
0.195922
0.252033
0.227954
0.224187
0.188925
0.164240
0.175198
0.163330
0.197022
0.167660
0.186709
0.161709
0.174940
0.163394
0.124194
0.141821
0.148255
0.119942
0.128238
0.116833
0.129398
0.132484
0.131576
0.089444
0.111037
0.094536
0.118874
0.068868
0.089346
0.084995
0.080971
0.074310
0.039989
0.079800
0.054701
0.038344
0.096889
0.052665
0.068429
0.037694
0.040468
0.049460
0.036002
0.032315
0.013378
0.011072
0.010287
0.023502
0.025806
0.004427
0.012995
0.040474
0.024068
0.025423
-0.010027
-0.004840
0.009132
0.023877
0.013255
0.030034
-0.007526
0.007393
0.000503
0.019976
0.000175
-0.002149
0.009640
-0.027101
0.028308
0.003316
-0.003601
-0.014585
-0.012891
0.014971
0.020997
-0.000526
0.023632
0.010218
-0.022895
0.021796
-0.010615
-0.009941
-0.011836
-0.009836
-0.029540
-0.004371
0.002867
-0.004145
-0.002804
-0.010564
0.007725
-0.008353
0.002910
0.001568
0.011238
0.006149
-0.004377
-0.001937
-0.017330
0.002058
0.036409
0.000321
0.004968
0.005859
-0.004963
0.018667
0.007295
0.011896
0.045774
0.011463
-0.022130
-0.001499
0.004447
-0.013743
-0.009036
-0.003375
0.017828
-0.000050
0.035558
-0.001942
-0.010985
0.016209
-0.005074
0.034766
0.005079
0.026829
0.033120
0.033875
-0.008079
-0.013955
0.012604
0.011492
-0.005585
0.001136
-0.005753
-0.014005
0.015914
0.008074
0.012466
0.019013
0.015655
0.026726
0.015285
0.028654
0.036520
0.050942
0.050162
0.062695
0.050527
0.075704
0.109704
0.095424
0.111345
0.126279
0.136559
0.155754
0.137141
0.162431
0.147289
0.157142
0.148061
0.146168
0.142213
0.145547
0.123290
0.123046
0.139132
0.101831
0.090171
0.085633
0.085442
0.083114
0.041945
0.070737
0.049437
0.051776
0.018204
0.044564
0.046035
0.013490
0.012481
0.013668
0.017789
0.012400
0.005631
-0.013649
0.011129
0.007349
-0.017797
-0.005671
-0.014255
-0.024776
0.003033
-0.003695
0.018626
-0.003592
0.013269
-0.034248
-0.002636
-0.005019
-0.005489
-0.011218
0.001900
0.004022
-0.009104
-0.008283
-0.020404
-0.003587
0.019315
0.015912
0.035476
-0.033894
0.002290
-0.002470
0.020569
-0.001817
0.013708
0.000327
0.004702
0.003583
-0.013617
-0.025490
-0.032970
-0.041855
-0.036484
-0.077007
-0.050695
-0.052644
-0.027753
-0.009637
0.002575
0.073231
0.166950
0.250559
0.357466
0.486706
0.601492
0.732788
0.855626
0.903321
0.962180
0.968821
0.947671
0.882474
0.768442
0.634371
0.507282
0.359547
0.208625
0.113701
0.003691
-0.072443
-0.119120
-0.142333
-0.120972
-0.155602
-0.115083
-0.089377
-0.073781
-0.044987
0.002030
-0.001599
0.024514
0.028328
0.058202
0.048065
0.076973
0.093451
0.103463
0.071152
0.092365
0.080889
0.109639
0.104811
0.140231
0.118383
0.131783
0.135762
0.144144
0.164728
0.122562
0.135287
0.181209
0.168132
0.177936
0.182061
0.207124
0.167896
0.179191
0.214531
0.223003
0.211710
0.224370
0.237885
0.251353
0.241584
0.231885
0.269751
0.253615
0.252796
0.250025
0.272218
0.266627
0.278178
0.259927
0.291799
0.275658
0.277515
0.294341
0.283566
0.293935
0.301879
0.276679
0.316648
0.306703
0.294870
0.289793
0.279486
0.309826
0.295584
0.330352
0.286383
0.275018
0.294434
0.252120
0.272482
0.294834
0.286930
0.304872
0.293449
0.265450
0.268716
0.260708
0.270483
0.266369
0.242561
0.261818
0.251669
0.223352
0.236979
0.242621
0.267698
0.205500
0.215053
0.211215
0.211677
0.198768
0.190226
0.171393
0.176723
0.165705
0.168291
0.145304
0.139440
0.157583
0.168848
0.146869
0.127092
0.128942
0.144670
0.112194
0.136972
0.089793
0.109917
0.124127
0.107535
0.122780
0.099723
0.084223
0.080674
0.063978
0.084218
0.055962
0.085088
0.044910
0.069949
0.056913
0.060293
0.055034
0.047098
0.053604
0.047093
0.034028
0.039296
0.033268
0.042849
0.012001
0.038608
0.016193
0.030878
0.034123
0.030074
0.036751
0.022168
-0.009982
-0.011680
0.015047
0.028268
0.007505
0.013428
0.030258
0.002813
-0.004423
-0.015745
0.004110
0.037064
0.002409
0.028355
0.025463
0.015504
0.015179
0.022655
0.008012
0.014951
0.024735
0.013788
-0.008172
0.018631
0.003094
0.010097
0.030640
-0.022115
0.012933
0.003211
0.009600
0.000437
-0.002832
0.005700
0.002556
-0.025051
-0.015547
0.029753
0.023070
-0.002136
0.021001
0.013052
-0.025156
-0.012012
-0.027587
-0.010734
-0.010464
-0.014066
0.005330
-0.007237
0.014443
-0.000543
-0.023022
-0.018541
0.006843
0.001403
-0.022679
-0.007956
0.010990
-0.028359
-0.018988
-0.001618
0.009329
0.014752
-0.011283
-0.003872
0.012441
-0.003695
0.019470
0.002243
-0.035707
0.006402
-0.007469
0.017364
-0.015286
-0.009802
-0.011941
0.012693
0.005923
0.006349
0.005494
0.006188
-0.000478
0.028296
0.019854
0.014746
-0.008922
0.035407
0.025257
0.060013
0.027907
0.025601
0.063681
0.049513
0.058230
0.065517
0.066948
0.096185
0.084593
0.086016
0.117666
0.127026
0.115740
0.141700
0.154193
0.157721
0.154469
0.176272
0.148081
0.096915
0.157193
0.130296
0.138661
0.119043
0.150925
0.118160
0.116829
0.109163
0.071689
0.077808
0.061960
0.074063
0.031092
0.038806
0.036255
0.053390
0.021838
0.026069
0.038864
0.009041
-0.011220
0.029015
-0.000527
0.008733
-0.024089
0.014498
-0.004142
-0.000935
-0.013210
0.000041
0.029947
0.000564
0.035772
-0.028145
0.014585
0.012746
0.003176
0.028762
0.012761
0.003783
0.001555
0.006439
-0.018577
-0.008220
0.013502
0.021306
-0.000836
-0.006500
-0.008412
-0.012740
-0.011464
0.002013
-0.000504
-0.011221
0.016524
-0.016016
-0.021692
-0.016162
-0.002708
-0.005638
-0.041315
-0.030743
-0.034667
-0.073903
-0.029572
-0.051425
-0.036687
-0.015999
0.012072
0.093342
0.171935
0.276905
0.382604
0.497318
0.615689
0.728544
0.841654
0.946099
0.976671
0.989496
0.934823
0.874440
0.748385
0.642224
0.507776
0.364727
0.204914
0.106286
-0.012921
-0.049627
-0.106663
-0.130136
-0.132815
-0.135290
-0.125537
-0.087039
-0.057658
-0.023347
0.007793
-0.005338
0.034226
0.038262
0.056330
0.069428
0.063973
0.061927
0.100698
0.048892
0.096062
0.116127
0.111050
0.112386
0.143552
0.127815
0.147577
0.154963
0.151421
0.195536
0.140440
0.122722
0.147096
0.160074
0.165821
0.195475
0.188937
0.175626
0.186581
0.181160
0.218369
0.210347
0.241230
0.209282
0.222901
0.246831
0.220788
0.216392
0.241019
0.224658
0.246220
0.260135
0.265770
0.258518
0.261456
0.265961
0.258191
0.311917
0.288312
0.327719
0.272331
0.312454
0.281736
0.309061
0.290496
0.284855
0.303207
0.297824
0.303547
0.286583
0.296740
0.302811
0.323115
0.289652
0.281027
0.305299
0.274508
0.301353
0.314447
0.276869
0.304082
0.263512
0.278808
0.260583
0.274218
0.248561
0.264201
0.248762
0.243413
0.253176
0.223274
0.231630
0.199132
0.227916
0.219834
0.228182
0.187618
0.196401
0.194149
0.213911
0.171279
0.185927
0.173719
0.161780
0.167864
0.149487
0.145723
0.135657
0.132927
0.107808
0.116907
0.135230
0.112061
0.102610
0.087540
0.078256
0.092555
0.090208
0.078501
0.088066
0.057686
0.085738
0.102923
0.043950
0.060170
0.042290
0.070806
0.069094
0.058907
0.015826
0.042327
0.042225
0.033249
0.044636
0.030229
0.041700
0.030578
0.047466
0.029770
0.022678
0.007395
0.048859
0.038235
0.019380
0.021283
0.002874
0.018685
0.038935
0.039032
0.011669
0.008347
0.018508
0.008225
-0.021610
0.030484
0.009519
0.026861
-0.002082
-0.000402
-0.005206
0.006491
0.014349
-0.001343
0.000813
0.005369
-0.000006
0.019786
-0.000426
0.011402
0.016752
-0.031964
0.006177
0.032778
-0.014372
0.012904
-0.003263
0.005334
0.023591
0.004318
0.012595
-0.041326
0.003392
-0.006931
0.011657
-0.011600
0.003501
0.004171
-0.014052
-0.009606
-0.003229
-0.036190
0.006142
-0.003825
0.018124
0.010989
0.020967
0.005715
0.024840
0.014146
0.025951
-0.017925
0.000846
0.016118
0.015408
-0.019515
0.002269
0.002630
-0.013867
-0.013730
0.015639
0.001300
0.024287
0.014820
0.022024
-0.024050
-0.015790
-0.010889
0.035489
-0.009161
0.006566
0.004196
0.007477
-0.017519
0.005136
0.007993
-0.009330
0.006551
0.003372
-0.014772
0.021978
-0.019282
0.032174
-0.009849
0.036344
0.053751
0.012796
0.037017
0.054473
0.041639
0.086250
0.077800
0.083367
0.122517
0.122994
0.083059
0.133048
0.104139
0.134551
0.155830
0.154414
0.174166
0.142106
0.150954
0.151747
0.149992
0.149887
0.130409
0.089916
0.117208
0.135250
0.119185
0.088004
0.117886
0.102477
0.055711
0.047841
0.048081
0.029857
0.030952
0.032457
0.047745
0.011849
0.033347
0.010407
0.006476
0.008947
-0.032004
0.035859
0.003926
-0.013154
-0.002913
0.026281
0.022412
-0.013591
-0.002966
-0.013908
-0.038659
0.022696
0.007359
0.005743
0.009026
-0.018005
-0.003734
0.008675
-0.000685
0.011306
0.000952
0.011039
0.006900
0.009747
-0.036756
0.012380
-0.014501
0.005868
-0.002328
-0.010550
-0.007353
0.002880
-0.014628
0.008873
-0.004847
0.000075
-0.005826
-0.009225
-0.032675
-0.056629
-0.032772
-0.034423
-0.049911
-0.060583
-0.026582
-0.004814
0.047361
0.096305
0.179907
0.262095
0.361895
0.489933
0.638095
0.743597
0.831937
0.902361
0.947169
0.954837
0.931821
0.863706
0.726646
0.630305
0.495122
0.363279
0.240964
0.105041
0.016418
-0.050517
-0.117083
-0.123141
-0.138820
-0.142749
-0.095575
-0.067184
-0.083715
-0.017953
0.029674
0.025504
0.022157
0.035729
0.054848
0.077330
0.081893
0.084264
0.071223
0.080368
0.101948
0.103337
0.102788
0.116835
0.118556
0.125682
0.137666
0.142031
0.121423
0.136817
0.148901
0.153792
0.168515
0.146236
0.176588
0.171063
0.192442
0.194374
0.200185
0.197906
0.200153
0.226949
0.222194
0.217041
0.215203
0.209797
0.237360
0.232401
0.227887
0.266901
0.273744
0.278299
0.269687
0.266410
0.278052
0.280007
0.266890
0.289725
0.304653
0.262579
0.312299
0.297008
0.311940
0.305835
0.309390
0.318855
0.294699
0.283123
0.289232
0.314541
0.289766
0.300874
0.309371
0.285788
0.318349
0.287981
0.304525
0.283014
0.280210
0.272675
0.288035
0.250272
0.277786
0.266168
0.249037
0.260759
0.260694
0.250280
0.243066
0.250900
0.233162
0.282912
0.204665
0.229140
0.210118
0.185562
0.196735
0.210425
0.201008
0.183349
0.169398
0.174863
0.160251
0.190301
0.190854
0.149443
0.151060
0.136121
0.131903
0.123139
0.145360
0.109158
0.116318
0.100242
0.127867
0.100342
0.105271
0.104450
0.097757
0.078970
0.079199
0.067938
0.077009
0.079853
0.056917
0.071395
0.081475
0.044234
0.064600
0.052473
0.036526
0.028192
0.050935
0.054761
0.044080
0.024731
0.030996
0.016201
0.027191
0.031585
0.026421
0.053093
0.007126
0.000148
0.012928
0.046345
-0.001376
0.008332
0.036609
0.017713
0.005020
0.017859
0.019361
-0.008794
0.021535
0.011902
0.002199
0.013640
0.013485
0.025165
0.014135
-0.006743
0.001454
0.000924
-0.021676
0.018990
-0.010335
0.002351
0.011892
0.019251
-0.009585
0.004511
-0.014980
0.007561
0.002393
0.004235
-0.000611
-0.009298
