0.022623
-0.025848
0.009358
0.007658
-0.025481
-0.019223
-0.009852
0.007920
-0.003813
-0.004161
0.002580
0.013224
0.027079
0.026819
0.048566
0.053546
0.061276
0.044469
0.048535
0.042661
0.085560
0.102113
0.107249
0.125312
0.100957
0.145658
0.125854
0.136184
0.123374
0.162447
0.133846
0.149415
0.136782
0.145762
0.124355
0.142110
0.130644
0.123536
0.133856
0.123996
0.086764
0.117881
0.072994
0.079446
0.088838
0.046363
0.042750
0.045363
0.030843
0.054951
0.037646
0.042778
0.007162
0.021280
0.003249
0.032074
0.008660
-0.025667
-0.006174
-0.018377
-0.018048
-0.007047
0.006593
-0.066337
-0.051390
-0.052799
-0.033217
-0.040953
-0.022415
0.028757
0.087833
0.151759
0.263581
0.369615
0.497256
0.606291
0.721656
0.823649
0.898913
0.959323
0.974455
0.929804
0.864302
0.777789
0.627700
0.525994
0.367854
0.241533
0.127437
0.038067
-0.074515
-0.102900
-0.114111
-0.137844
-0.135691
-0.121522
-0.116485
-0.049284
-0.029222
-0.018194
0.009512
0.022618
0.029303
0.052275
0.051666
0.060676
0.045190
0.088461
0.092357
0.092561
0.118532
0.142717
0.111388
0.118780
0.124933
0.131017
0.154527
0.110608
0.133994
0.160207
0.143135
0.127960
0.148380
0.165670
0.175256
0.188881
0.190459
0.176791
0.183217
0.203409
0.214141
0.214668
0.226406
0.233146
0.232231
0.207918
0.221645
0.270255
0.269638
0.251921
0.244269
0.257530
0.280317
0.284914
0.283244
0.279509
0.294343
0.323713
0.286861
0.296235
0.284417
0.289199
0.314254
0.301343
0.304320
0.277905
0.295810
0.285328
0.289646
0.315398
0.297570
0.289083
0.312398
0.313731
0.309801
0.292545
0.291753
0.277465
0.306401
0.313038
0.267356
0.241495
0.265220
0.252549
0.286656
0.267865
0.243873
0.251949
0.218467
0.268911
0.233783
0.208086
0.224288
0.210685
0.256828
0.201361
0.186461
0.186828
0.180940
0.189221
0.195262
0.182744
0.169928
0.170051
0.142932
-0.008437
0.003867
-0.007164
0.000210
0.007437
0.008044
-0.023848
0.009652
0.038740
-0.004537
0.016522
-0.002840
0.035562
0.007957
0.019711
0.019560
0.055946
0.033990
0.062095
0.070418
0.073479
0.081617
0.072716
0.093085
0.098229
0.144070
0.121257
0.133912
0.118058
0.138468
0.168307
0.136238
0.170896
0.144513
0.154248
0.131997
0.178731
0.133523
0.112233
0.096303
0.110626
0.094525
0.101171
0.078419
0.055628
0.069223
0.046125
0.063154
0.061303
0.037875
0.048553
0.011522
0.008633
0.009494
0.013971
0.013186
-0.000026
0.033291
-0.013069
0.006873
-0.022194
-0.047121
-0.025989
-0.063745
-0.057748
-0.036469
-0.065531
-0.027067
-0.011937
-0.020190
0.063191
0.134990
0.267609
0.364222
0.450014
0.588090
0.715856
0.806456
0.897349
0.974159
0.953818
0.950682
0.894778
0.794796
0.663648
0.504584
0.361623
0.247830
0.127520
0.010186
-0.025347
-0.095438
-0.119910
-0.132105
-0.137950
-0.125624
-0.104179
-0.070259
-0.041351
0.000736
0.012551
0.015839
0.024987
0.051049
0.063916
0.065685
0.075049
0.078807
0.120124
0.132453
0.127375
0.140188
0.111196
0.105598
0.112971
0.114640
0.115162
0.151888
0.144934
0.135604
0.113876
0.167615
0.165749
0.188737
0.171983
0.167532
0.186109
0.207741
0.171681
0.202453
0.224274
0.207376
0.207906
0.224573
0.235348
0.213182
0.247331
0.262048
0.241713
0.265318
0.268255
0.271547
0.291962
0.269859
0.274340
0.270060
0.272086
0.290205
0.310643
0.296838
0.295102
0.303230
0.296373
0.311914
0.280917
0.291774
0.290813
0.319613
0.291003
0.283699
0.307915
0.323333
0.298697
0.278704
0.322224
0.327051
0.322490
0.274152
0.266399
0.289104
0.258766
0.262015
0.263254
0.289632
0.248344
0.248372
0.241738
0.257483
0.224865
0.221729
0.226714
0.224362
0.213313
0.229359
0.200900
0.235433
0.212971
0.190679
0.194354
0.192577
0.164073
0.183681
0.166681
0.162602
0.149590
0.002443
-0.004398
0.016514
0.008378
-0.004879
-0.000228
0.004544
0.010522
0.023245
-0.014661
0.021082
0.028383
0.016280
0.005653
0.024951
0.037957
0.056144
0.097740
0.057264
0.060761
0.070142
0.072037
0.093630
0.138294
0.090130
0.122668
0.108050
0.126575
0.134095
0.155992
0.150539
0.120599
0.161089
0.143973
0.172187
0.143238
0.124607
0.127249
0.139802
0.114543
0.116089
0.110623
0.104779
0.052285
0.053148
0.055885
0.058903
0.053969
0.043161
0.048545
0.038605
0.028366
0.030887
0.043559
0.024434
0.021993
0.026144
0.003366
-0.024373
-0.031323
-0.023024
0.001205
-0.034155
-0.031845
-0.049312
-0.070364
-0.035741
-0.036931
-0.002883
0.019157
0.089857
0.169201
0.265303
0.380505
0.499659
0.591897
0.717544
0.819107
0.887950
0.948811
0.958427
0.909432
0.896787
0.768393
0.671521
0.525341
0.393727
0.245838
0.156497
0.036175
-0.045636
-0.111667
-0.099582
-0.153529
-0.132825
-0.101912
-0.116357
-0.057791
-0.067319
-0.021475
0.008543
0.013962
0.026730
0.061746
0.042008
0.090859
0.058440
0.094928
0.097375
0.087201
0.090908
0.112223
0.101119
0.143079
0.101096
0.122634
0.136071
0.150299
0.134762
0.160777
0.146578
0.149500
0.172983
0.193565
0.186676
0.184197
0.160465
0.172228
0.186296
0.183757
0.205610
0.212059
0.214173
0.215122
0.220129
0.220016
0.239487
0.244875
0.269471
0.231917
0.258682
0.240758
0.263173
0.270405
0.284161
0.259069
0.285626
0.263123
0.271365
0.270093
0.293508
0.299382
0.298102
0.284333
0.316572
0.290829
0.297083
0.305614
0.288900
0.285154
0.293403
0.276438
0.310800
0.277147
0.288920
0.282621
0.298508
0.285990
0.297748
0.263981
0.280086
0.301350
0.266155
0.263159
0.247477
0.258291
0.257452
0.247840
0.227514
0.242867
0.203937
0.219093
0.216775
0.217194
0.229327
0.206310
0.210464
0.200004
0.183964
0.171759
0.188646
0.163312
0.147982
0.138896
0.155587
-0.000920
0.025058
-0.019941
0.008497
0.007678
0.013402
0.028421
-0.012027
0.011348
0.013078
0.011791
0.012490
0.029902
0.028295
0.021372
0.052873
0.060035
0.047395
0.057091
0.063409
0.057064
0.061190
0.102717
0.087984
0.096598
0.103158
0.119721
0.141878
0.157236
0.158345
0.123127
0.141863
0.132665
0.163623
0.143266
0.146919
0.121182
0.125369
0.111390
0.098578
0.113771
0.123810
0.045518
0.121117
0.069100
0.048983
0.055669
0.047265
0.051324
0.051324
0.031698
0.038730
0.019299
0.004637
0.009691
0.022540
0.024355
-0.006895
-0.018522
-0.038710
-0.020933
-0.014594
-0.054769
-0.053229
-0.066274
-0.052197
-0.045536
-0.046854
-0.013679
0.052203
0.072981
0.144135
0.214215
0.355749
0.458999
0.602206
0.723790
0.791330
0.928666
0.974672
0.966903
0.933955
0.844388
0.770726
0.639053
0.530131
0.374003
0.266072
0.099633
0.016324
-0.050879
-0.092146
-0.125771
-0.137016
-0.140732
-0.126222
-0.126221
-0.060470
-0.024951
-0.009558
0.028353
0.030779
-0.007534
0.040711
0.065247
0.061243
0.069482
0.085962
0.101312
0.092984
0.086030
0.081483
0.124201
0.142657
0.129077
0.094726
0.132705
0.149609
0.142822
0.116868
0.145429
0.165312
0.176839
0.159158
0.174095
0.180989
0.196115
0.180447
0.210740
0.224476
0.196191
0.188483
0.223248
0.232661
0.222017
0.251208
0.234587
0.253868
0.244072
0.265785
0.273313
0.258743
0.250355
0.266347
0.289821
0.277834
0.290609
0.286970
0.308551
0.293420
0.315387
0.308983
0.280619
0.308187
0.306417
0.315962
0.283990
0.281746
0.292309
0.300741
0.295628
0.302909
0.318121
0.330944
0.279996
0.300460
0.279704
0.304405
0.250909
0.278947
0.293092
0.255592
0.261250
0.271805
0.268865
0.268598
0.268796
0.262137
0.224595
0.247444
0.213638
0.227595
0.190425
0.223724
0.216405
0.219862
0.199916
0.205324
0.156526
0.171918
0.195303
0.178276
0.175556
0.139232
0.159593
0.022842
0.037652
0.005755
-0.018535
-0.003005
-0.010125
0.002852
0.019521
0.013070
0.019839
-0.015362
0.006191
0.003819
0.013289
0.048099
0.027959
0.042136
0.036455
0.074846
0.066289
0.064455
0.098602
0.056524
0.107707
0.123607
0.103789
0.109581
0.134682
0.117747
0.128173
0.159342
0.124387
0.169790
0.159308
0.161432
0.160750
0.171602
0.133315
0.140848
0.100160
0.109862
0.096668
0.068124
0.059520
0.090203
0.078048
0.076180
0.034978
0.041655
0.046590
0.021405
0.027595
0.016760
0.000312
0.015424
-0.006264
0.020133
-0.006498
-0.001523
-0.011251
-0.024450
-0.042151
-0.024276
-0.045450
-0.046139
-0.054247
-0.048464
-0.026419
-0.018120
0.050328
0.074726
0.155390
0.252374
0.345713
0.493672
0.592412
0.709706
0.816302
0.893257
0.945923
0.992950
0.943311
0.897390
0.797651
0.667167
0.525527
0.361315
0.258695
0.136521
0.018417
-0.044470
-0.080977
-0.159438
-0.157799
-0.127301
-0.112487
-0.097228
-0.061601
-0.053929
-0.000928
-0.028961
0.011840
0.050678
0.059684
0.056362
0.072329
0.088767
0.116822
0.105178
0.091586
0.093296
0.120419
0.102306
0.088410
0.117544
0.134750
0.131119
0.148105
0.142628
0.174594
0.165862
0.175177
0.154097
0.170426
0.163430
0.167624
0.188489
0.185913
0.172492
0.204888
0.229712
0.196319
0.211416
0.259950
0.248849
0.230094
0.225032
0.284191
0.263175
0.260973
0.262261
0.257568
0.266830
0.277151
0.278198
0.307639
0.288248
0.289196
0.313176
0.300513
0.284631
0.299727
0.303897
0.305818
0.290948
0.274086
0.281329
0.282617
0.277844
0.312962
0.293506
0.293401
0.302214
0.297832
0.313086
0.311211
0.299596
0.306903
0.279494
0.290826
0.254554
0.292540
0.269856
0.285017
0.270726
0.224915
0.267874
0.246064
0.251145
0.240184
0.228763
0.238566
0.215555
0.209871
0.198627
0.182421
0.208079
0.199585
0.174561
0.164938
0.163420
0.148750
0.147278
0.149534
0.154408
0.004632
-0.004322
-0.017513
0.001551
0.022748
0.009446
-0.012677
-0.009718
0.009947
-0.016593
0.027120
-0.004196
0.028007
0.007403
0.041792
0.044834
0.053435
0.057264
0.060972
0.063619
0.071909
0.076137
0.071596
0.079304
0.104340
0.109823
0.114547
0.126056
0.160261
0.137446
0.161052
0.121596
0.166125
0.142232
0.130357
0.115047
0.152159
0.104066
0.129736
0.092611
0.065217
0.092859
0.083991
0.084184
0.110457
0.104354
0.042719
0.031945
0.070395
0.047366
0.019831
0.013632
0.033131
0.037783
0.009764
0.030290
0.012022
-0.002215
-0.002178
0.018398
0.001553
-0.038135
-0.013620
-0.046193
-0.045505
-0.055590
-0.043797
-0.036456
-0.003835
0.016010
0.091123
0.134714
0.232887
0.361074
0.464412
0.585666
0.725005
0.836444
0.918476
0.968900
0.962451
0.938469
0.870655
0.771198
0.650892
0.499338
0.389166
0.248369
0.114154
0.015178
-0.049610
-0.071071
-0.112141
-0.127567
-0.131950
-0.114937
-0.086816
-0.060211
-0.012366
-0.033005
0.003180
0.010321
0.034897
0.068781
0.071359
0.069264
0.074585
0.116750
0.085622
0.099021
0.085620
0.125052
0.103246
0.093863
0.128166
0.111307
0.124747
0.139118
0.176363
0.153115
0.160752
0.152812
0.177114
0.160488
0.186443
0.164164
0.182171
0.196113
0.183314
0.211636
0.225166
0.182079
0.228480
0.218893
0.246161
0.204664
0.239001
0.252363
0.247466
0.258358
0.244445
0.252693
0.284389
0.284732
0.287078
0.289192
0.264867
0.281296
0.282421
0.305070
0.288468
0.281195
0.300464
0.298878
0.286913
0.288057
0.290389
0.296959
0.314193
0.311910
0.318655
0.290640
0.320299
0.301684
0.288543
0.297056
0.284051
0.255127
0.291941
0.270902
0.293473
0.266133
0.255844
0.267698
0.261359
0.264312
0.271895
0.284727
0.250661
0.239534
0.225065
0.200614
0.236725
0.210392
0.195718
0.174306
0.163715
0.176986
0.171378
0.179100
0.177009
0.188832
0.166035
0.184195
0.156934
-0.001936
-0.021035
0.003411
0.010776
0.021133
-0.026292
-0.019786
0.024424
0.036390
0.006339
0.026322
0.049050
0.004850
0.014489
0.028686
0.032799
0.019850
0.060624
0.032590
0.081702
0.081633
0.056657
0.108668
0.118861
0.106672
0.110881
0.109181
0.126824
0.124161
0.158874
0.151630
0.129832
0.161710
0.143817
0.163782
0.130461
0.123859
0.127148
0.128013
0.135683
0.102198
0.109774
0.090192
0.059427
0.073738
0.071153
0.044519
0.052690
0.035068
0.054082
0.053508
-0.002597
0.017238
0.021217
0.018390
-0.011509
0.022938
-0.010112
-0.002732
-0.002555
-0.040313
0.002166
-0.031961
-0.019323
-0.052260
-0.047380
-0.042151
-0.027372
0.004149
0.038296
0.083129
0.145899
0.244322
0.354888
0.464873
0.628669
0.703452
0.832319
0.922448
0.957869
1.010787
0.904183
0.855083
0.797906
0.674362
0.489450
0.365072
0.223138
0.109283
0.045040
-0.055569
-0.096483
-0.107497
-0.130955
-0.113652
-0.138036
-0.090011
-0.078522
-0.030310
-0.005356
-0.007997
0.038417
0.042263
0.090018
0.086944
0.059697
0.059391
0.058794
0.108298
0.090343
0.102184
0.074237
0.102222
0.096941
0.153616
0.133067
0.108709
0.122566
0.138827
0.128672
0.128917
0.154966
0.177789
0.153052
0.171265
0.168885
0.186410
0.202829
0.205086
0.205840
0.191282
0.214297
0.216564
0.206859
0.229938
0.228105
0.244922
0.222330
0.234672
0.251925
0.257146
0.208408
0.251314
0.274874
0.246367
0.280752
0.296175
0.279785
0.291555
0.290077
0.288930
0.271808
0.312480
0.306822
0.295181
0.280309
0.305052
0.295917
0.296081
0.306815
0.313340
0.306821
0.277758
0.312998
0.325113
0.321345
0.287328
0.269644
0.284817
0.268858
0.282856
0.256938
0.252188
0.262712
0.281404
0.269159
0.246832
0.259176
0.247990
0.237560
0.245242
0.219055
0.221231
0.217048
0.196453
0.184246
0.201832
0.207088
0.185276
0.189822
0.181505
0.183710
0.119039
0.132245
0.161415
0.033771
0.004784
0.010766
-0.012023
0.002659
0.028401
0.008683
0.011169
0.007275
0.024557
-0.019344
0.027228
0.028266
-0.004011
0.018180
0.036451
0.047741
0.037819
0.055713
0.061512
0.073922
0.080164
0.077526
0.100009
0.122188
0.108042
0.143481
0.145239
0.130051
0.122769
0.155933
0.130608
0.131555
0.150039
0.145158
0.172563
0.132448
0.126104
0.148283
0.119002
0.108690
0.108869
0.107309
0.085139
0.049372
0.053530
0.045392
0.050113
0.044616
0.055392
0.023901
0.029487
-0.007906
0.041170
0.006211
0.005901
0.013529
0.028638
0.024599
-0.028527
-0.005650
-0.029024
-0.024237
-0.050852
-0.034623
-0.087571
-0.046642
0.009855
-0.016914
0.032312
0.088892
0.184805
0.223327
0.339408
0.443289
0.594185
0.723448
0.815453
0.882401
0.936961
0.938002
0.943186
0.886132
0.788437
0.648518
0.532660
0.406189
0.236276
0.098411
0.013187
-0.029476
-0.115048
-0.112393
-0.143555
-0.150223
-0.108435
-0.097690
-0.060630
-0.050059
-0.038000
-0.003329
0.046936
0.045350
0.069112
0.039554
0.095869
0.088896
0.074535
0.092107
0.059522
0.103541
0.103213
0.108684
0.079417
0.100263
0.128144
0.138217
0.152125
0.114664
0.141534
0.138996
0.169917
0.177833
0.173171
0.183314
0.194877
0.160732
0.202474
0.191620
0.202240
0.194857
0.194397
0.238804
0.237084
0.215389
0.240541
0.263436
0.251492
0.272666
0.263448
0.283955
0.266751
0.265907
0.270977
0.272019
0.290917
0.288533
0.280248
0.310382
0.255668
0.281165
0.306473
0.259054
0.294949
0.313137
0.290743
0.276192
0.318025
0.299274
0.285787
0.308616
0.298811
0.306688
0.304064
0.305920
0.276636
0.302245
0.273201
0.287083
0.293265
0.258252
0.285062
0.275952
0.261314
0.262339
0.243197
0.239128
0.241896
0.259210
0.241612
0.240760
0.246556
0.238717
0.199328
0.234659
0.220228
0.207750
0.223415
0.185882
0.186871
0.155455
0.168180
0.180938
0.136422
0.166518
-0.014988
-0.012489
-0.002327
0.015520
0.005212
-0.008242
0.006751
-0.008667
-0.003938
0.011411
0.032391
0.009446
0.015387
0.031950
0.048241
0.030443
0.024964
0.072398
0.051365
0.059816
0.060108
0.102800
0.108320
0.105658
0.106318
0.109185
0.115063
0.122607
0.153075
0.153986
0.152376
0.142072
0.178804
0.136340
0.148547
0.156998
0.148427
0.123589
0.108654
0.107240
0.089737
0.106580
0.090118
0.086999
0.055592
0.043120
0.056491
0.077565
0.049416
0.054277
0.021696
0.033278
0.011754
0.021270
0.035931
0.009782
0.002131
0.007857
0.004698
0.003737
-0.006630
-0.013462
-0.047275
-0.033526
-0.042149
-0.049470
-0.046478
-0.055120
-0.011820
0.038236
0.074826
0.147841
0.223537
0.352160
0.465183
0.636777
0.726349
0.841569
0.912273
0.935784
0.970617
0.946191
0.872582
0.752442
0.654437
0.518372
0.369275
0.260810
0.124191
0.029015
-0.040797
-0.103253
-0.160498
-0.129586
-0.131812
-0.136620
-0.101161
-0.050949
-0.046767
-0.028935
-0.003353
0.021228
0.035843
0.060949
0.055343
0.076927
0.089076
0.097498
0.091573
0.087655
0.074421
0.106458
0.122770
0.102984
0.110768
0.112010
0.133317
0.154510
0.151742
0.164427
0.153166
0.155231
0.174152
0.175645
0.167397
0.202959
0.185078
0.185757
0.213836
0.208100
0.233038
0.211656
0.210948
0.226803
0.247024
0.230789
0.259636
0.248423
0.259585
0.249715
0.273004
0.262491
0.281397
0.308133
0.243964
0.276424
0.271307
0.286388
0.285649
0.257237
0.265598
0.291817
0.285439
0.332111
0.328306
0.316132
0.292647
0.274267
0.300143
0.285993
0.284275
0.293170
0.280555
0.309244
0.296977
0.303157
0.282464
0.296011
0.292808
0.292358
0.281260
0.256233
0.266116
0.272602
0.268227
0.255531
0.264195
0.272881
0.228049
0.233336
0.228473
0.225972
0.233516
0.184624
0.190458
0.191822
0.184351
0.195389
0.195794
0.179827
0.178147
0.174241
0.181192
0.160562
0.153938
0.006934
0.010969
-0.005029
-0.009932
-0.004184
-0.004595
0.023941
0.019020
-0.004774
0.020626
0.008004
0.019367
0.036840
0.025314
0.009240
0.032266
0.027500
0.077379
0.059881
0.039497
0.106984
0.078111
0.129472
0.113397
0.108909
0.108613
0.123687
0.128275
0.135989
0.139655
0.163609
0.139397
0.165579
0.140639
0.161663
0.129555
0.149319
0.135472
0.129131
0.134629
0.106332
0.082883
0.109641
0.107670
0.080110
0.069929
0.060500
0.055870
0.014422
0.037753
0.019851
0.053178
0.042868
0.020601
0.018836
-0.002542
-0.001263
-0.000011
-0.002059
0.025250
-0.023475
0.017410
-0.038702
-0.042455
-0.026330
-0.074706
-0.049820
-0.017835
-0.034360
0.068156
0.086071
0.150078
0.217878
0.346832
0.472192
0.588565
0.735953
0.848168
0.922252
0.954146
0.968710
0.944068
0.882222
0.781672
0.658911
0.537333
0.369305
0.231543
0.110705
0.029102
-0.076504
-0.080400
-0.141126
-0.131922
-0.134102
-0.136072
-0.103192
-0.080014
-0.052699
-0.011853
0.000776
0.031148
0.048256
0.062506
0.064567
0.062557
0.083914
0.069419
0.061021
0.101007
0.103881
0.095534
0.112444
0.098661
0.128231
0.138318
0.131704
0.127756
0.134032
0.148057
0.137080
0.169408
0.177715
0.179548
0.182810
0.182952
0.179000
0.205397
0.202648
0.225137
0.207850
0.203619
0.237012
0.240039
0.242745
0.217330
0.239311
0.243908
0.264402
0.284609
0.257635
0.244814
0.271417
0.247588
0.265658
0.289359
0.286608
0.286354
0.276098
0.292646
0.289532
0.289889
0.312596
0.291359
0.284139
0.292950
0.322446
0.317660
0.289184
0.298466
0.287680
0.297765
0.294784
0.315246
0.279374
0.266662
0.294645
0.300701
0.287353
0.287851
0.331849
0.256984
0.247350
0.274513
0.268729
0.225936
0.260337
0.229900
0.236971
0.228408
0.223400
0.238887
0.203445
0.203686
0.228276
0.231780
0.169024
0.199756
0.191425
0.182879
0.177521
0.195505
0.173946
0.138009
0.143139
0.003440
0.019590
0.016416
-0.021643
-0.005021
0.025391
0.007379
0.025276
-0.013709
0.015225
0.026880
-0.000304
0.028612
0.018568
0.042336
0.051673
0.044275
0.035154
0.030651
0.099113
0.064490
0.089276
0.087195
0.099305
0.084551
0.120941
0.139318
0.124869
0.125592
0.146522
0.129501
0.147851
0.172835
0.150540
0.149257
0.152822
0.120325
0.114551
0.124906
0.113833
0.135466
0.098460
0.083941
0.079746
0.058673
0.062130
0.060773
0.033034
0.047325
0.047108
0.051595
0.028510
0.017688
0.020376
0.032807
-0.008867
0.022666
0.002159
0.001262
0.014376
-0.002702
-0.014257
-0.018813
0.001561
-0.051215
-0.053890
-0.039307
-0.047532
-0.011737
0.040932
0.072144
0.155696
0.228532
0.341063
0.486920
0.617440
0.692480
0.816990
0.888403
0.947858
0.966524
0.924625
0.895997
0.807369
0.685612
0.511417
0.394679
0.235929
0.130185
0.037840
-0.048186
-0.085450
-0.131322
-0.155039
-0.125996
-0.124645
-0.084811
-0.096087
-0.032886
-0.001827
0.025871
0.030819
0.021667
0.037585
0.080270
0.068649
0.071255
0.074350
0.072373
0.078551
0.096669
0.102175
0.123012
0.092462
0.117743
0.135683
0.136962
0.129902
0.154556
0.147079
0.149311
0.141885
0.152840
0.132752
0.180832
0.184648
0.182675
0.175373
0.210894
0.220259
0.211980
0.204295
0.218192
0.245284
0.211217
0.258323
0.273305
0.242035
0.273737
0.232136
0.290076
0.275319
0.273862
0.278264
0.257438
0.273885
0.265691
0.244055
0.284066
0.325177
0.280512
0.301836
0.297225
0.302809
0.303272
0.293525
0.316695
0.291887
0.305554
0.304568
0.275230
0.318158
0.293093
0.299680
0.284868
0.267216
0.311495
0.269431
0.283417
0.277415
0.272609
0.275714
0.276984
0.261988
0.252908
0.248357
0.273225
0.243526
0.244971
0.212761
0.234412
0.231106
0.202417
0.228990
0.217467
0.195120
0.197693
0.185340
0.194365
0.226437
0.160699
0.194628
0.150017
0.179031
0.149362
0.009978
0.019125
-0.001911
0.017450
0.019904
0.037603
0.016245
0.006829
0.005164
0.019668
-0.014975
0.005126
0.024829
0.021434
0.029114
0.033332
0.041767
0.032915
0.053058
0.066318
0.042351
0.101684
0.068394
0.083282
0.102979
0.113045
0.111466
0.113517
0.118422
0.151520
0.155585
0.150072
0.173370
0.169275
0.168175
0.147262
0.142177
0.114516
0.112317
0.114499
0.098971
0.111747
0.059145
0.094170
0.061514
0.090838
0.081755
0.065889
0.066959
0.009901
0.062685
0.003046
0.027567
0.049522
0.001722
-0.002053
0.004573
0.024677
-0.005471
-0.000185
-0.016898
-0.016514
-0.057749
-0.044264
-0.048916
-0.061964
-0.041195
-0.034985
-0.020248
0.009152
0.078862
0.153764
0.231778
0.355346
0.480125
0.587210
0.720855
0.840207
0.905171
0.946929
0.976532
0.936296
0.897752
0.788716
0.642512
0.504016
0.362260
0.237369
0.104050
0.055225
-0.037878
-0.112395
-0.129445
-0.128265
-0.126643
-0.132494
-0.086140
-0.095636
-0.046562
-0.006390
0.002170
0.031766
0.011966
0.046939
0.073912
0.085258
0.066258
0.101114
0.097248
0.084276
0.119907
0.087497
0.127137
0.126008
0.128371
0.135689
0.131611
0.130656
0.113355
0.133145
0.158380
0.183082
0.185644
0.161502
0.173796
0.184330
0.168436
0.187078
0.163331
0.200194
0.187440
0.215879
0.219415
0.223952
0.249286
0.218910
0.260405
0.256117
0.251169
0.243032
0.266955
0.265015
0.262012
0.280263
0.286118
0.267864
0.263173
0.271113
0.288196
0.284293
0.284438
0.301780
0.295658
0.315218
0.297875
0.305711
0.337852
0.297321
0.316231
0.293147
0.286885
0.263950
0.290530
0.272028
0.314074
0.268499
0.302649
0.279340
0.274892
0.294315
0.258155
0.282941
0.293212
0.237467
0.250457
0.273788
0.249833
0.232206
0.229057
0.236125
0.234798
0.239614
0.233043
0.222488
0.219220
0.196470
0.205261
0.191439
0.183273
0.162065
0.177383
0.154695
0.160540
0.168544
0.149280
0.007560
-0.000893
0.005913
-0.005177
-0.004625
0.017829
0.006727
0.009818
0.006401
0.016016
0.011799
0.015823
0.032495
0.031984
0.033612
0.054941
0.052270
0.051042
0.056829
0.077453
0.074484
0.079046
0.085227
0.123745
0.119106
0.125614
0.144483
0.115586
0.132572
0.137883
0.134387
0.130346
0.157959
0.155044
0.134956
0.153324
0.155079
0.129999
0.123613
0.103134
0.110327
0.107577
0.067562
0.077003
0.105695
0.061377
0.071639
0.054643
0.019646
0.029152
0.028446
0.024068
0.017608
0.023809
0.025246
0.010476
0.012556
0.001630
-0.002884
0.000114
-0.026265
-0.032349
-0.023780
-0.040354
-0.056283
-0.050275
-0.053995
-0.058522
-0.004293
0.031194
0.070794
0.161033
0.243146
0.350455
0.448560
0.585168
0.726043
0.812452
0.903400
0.938603
0.968126
0.947494
0.865352
0.779190
0.663030
0.511473
0.356677
0.253883
0.143140
0.036028
-0.054773
-0.104423
-0.139749
-0.124425
-0.144469
-0.114041
-0.091448
-0.071910
-0.039121
-0.006907
-0.004229
0.031089
0.047096
0.043088
0.060783
0.073047
0.082092
0.082307
0.086346
0.103926
0.097179
0.086065
0.095933
0.139345
0.130987
0.104066
0.127124
0.136408
0.120709
0.156171
0.163091
0.176368
0.157103
0.135488
0.210046
0.172894
0.182291
0.209634
0.198002
0.207299
0.203402
0.217660
0.205180
0.221879
0.206374
0.216344
0.233900
0.264714
0.242128
0.233501
0.262532
0.271352
0.256918
0.273778
0.261462
0.294589
0.282678
0.304643
0.291462
0.306380
0.295598
0.287429
0.314337
0.298212
0.284608
0.310353
0.308654
0.302737
0.291391
0.286277
0.300944
0.312943
0.288867
0.304887
0.320368
0.294815
0.301039
0.292235
0.279331
0.294088
0.302806
0.251428
0.267838
0.247131
0.259739
0.246382
0.255811
0.248648
0.224507
0.251936
0.229064
0.220821
0.225373
0.185370
0.207924
0.189506
0.163081
0.191221
0.173807
0.216391
0.168129
0.175682
0.149553
0.179003
0.181631
-0.011509
-0.005709
0.007370
-0.033244
0.011870
-0.002910
0.020063
-0.005511
-0.001813
0.004381
0.018486
-0.000574
0.022013
0.024266
0.028678
0.030690
0.057741
0.044767
0.084997
0.084250
0.042101
0.083469
0.097750
0.097825
0.094382
0.109620
0.156835
0.156229
0.136693
0.157425
0.147949
0.145611
0.148070
0.137869
0.153905
0.148694
0.122871
0.135497
0.093978
0.092220
0.088853
0.102078
0.091684
0.087816
0.075993
0.080156
0.073642
0.054761
0.032729
0.017736
0.017912
0.005645
-0.015070
0.015785
0.022842
0.012373
0.037898
0.013267
-0.023008
-0.020998
-0.026335
-0.013174
-0.022705
-0.027039
-0.029782
-0.034830
-0.044438
-0.035615
-0.008905
0.009499
0.089593
0.153763
0.259240
0.344526
0.469632
0.582979
0.708086
0.842072
0.893731
0.931549
0.951339
0.940101
0.869489
0.806431
0.655024
0.528629
0.369288
0.246579
0.107209
0.025691
-0.067016
-0.111340
-0.133852
-0.122185
-0.108607
-0.107073
-0.093077
-0.066536
-0.041255
-0.028102
-0.002502
0.030225
0.034860
0.042906
0.093719
0.069717
0.084879
0.081748
0.089964
0.086876
0.086129
0.128950
0.079696
0.114349
0.109171
0.149704
0.104889
0.161487
0.145138
0.141860
0.132243
0.154991
0.126515
0.170324
0.170433
0.177667
0.202304
0.186396
0.247725
0.200273
0.183363
0.204870
0.204396
0.217343
0.209392
0.246451
0.237095
0.217365
0.242567
0.246606
0.279674
0.270743
0.259538
0.275593
0.283996
0.271351
0.280462
0.288179
0.271016
0.271118
0.301621
0.319203
0.310755
0.290769
0.287173
0.279823
0.286010
0.302370
0.298423
0.312722
0.287008
0.295120
0.310446
0.301815
0.297156
0.265856
0.308286
0.284620
0.305586
0.308237
0.292614
0.248946
0.271174
0.263733
0.251163
0.268908
0.236953
0.271322
0.243815
0.232782
0.229651
0.216897
0.229192
0.199740
0.198030
0.206933
0.201334
0.176950
0.180828
0.197661
0.171255
0.171886
0.135898
0.153923
0.174168
0.011767
-0.020360
-0.001821
0.002170
0.012362
0.008765
0.014591
0.000899
-0.008423
0.004186
0.020454
0.020804
0.008305
0.034104
0.035148
0.048967
0.022933
0.048804
0.051860
0.039354
0.057299
0.112498
0.077748
0.098937
0.126966
0.124462
0.093289
0.137822
0.125700
0.185274
0.131687
0.138474
0.172157
0.185787
0.158660
0.129752
0.170366
0.152451
0.138759
0.127062
0.125373
0.117334
0.087211
0.090309
0.092639
0.061184
0.075853
0.048747
0.044683
0.023892
0.004999
0.039123
0.034769
0.008590
0.029425
-0.001084
0.003418
0.021363
-0.003870
-0.042697
-0.004163
-0.035916
-0.037703
-0.055446
-0.024250
-0.035480
-0.055317
-0.048079
-0.020055
0.013276
0.080045
0.143786
0.263392
0.353987
0.473648
0.605680
0.717257
0.828070
0.912360
0.957338
0.972245
0.939800
0.851680
0.738654
0.639790
0.517234
0.375054
0.260581
0.130752
0.016550
-0.054665
-0.094878
-0.151617
-0.139853
-0.140774
-0.105672
-0.077060
-0.072417
-0.029135
-0.014332
0.006516
0.012967
0.034191
0.052536
0.066963
0.064185
0.070107
0.073233
0.079503
0.088356
0.104059
0.116102
0.148138
0.114417
0.112320
0.082707
0.137581
0.130462
0.127299
0.156882
0.171018
0.158108
0.153464
0.161810
0.163792
0.179573
0.194161
0.196465
0.189543
0.194677
0.228400
0.218683
0.236929
0.228402
0.260421
0.248396
0.261430
0.237435
0.229483
0.243751
0.246495
0.272422
0.281044
0.281144
0.283001
0.266349
0.259587
0.265685
0.276249
0.283472
0.293056
0.311082
0.273349
0.318024
0.306242
0.293004
0.306057
0.305869
0.301168
0.273236
0.304869
0.291405
0.286539
0.284519
0.290387
0.296304
0.263302
0.306490
0.269294
0.276521
0.263200
0.273953
0.260720
0.258932
0.257937
0.250865
0.254367
0.250497
0.229163
0.241195
0.242681
0.237620
0.229665
0.196805
0.203152
0.192485
0.199335
0.214030
0.176645
0.172709
0.171655
0.177329
0.151935
0.171878
0.177066
0.014752
-0.022408
0.013268
0.012636
0.031112
0.021320
-0.022639
0.029464
0.017965
-0.003253
0.003369
0.045158
0.007389
0.040165
0.014065
0.043635
0.020771
0.066991
0.058937
0.074407
0.078701
0.122398
0.124787
0.105292
0.087871
0.117085
0.114734
0.137509
0.141630
0.141521
0.169260
0.136157
0.184404
0.125688
0.129774
0.129169
0.134932
0.139920
0.123588
0.110551
0.109136
0.113540
0.068429
0.078324
0.054025
0.075687
0.057581
0.043911
0.040505
0.048545
0.015089
0.018975
0.022140
0.027804
0.020868
0.012938
-0.012600
-0.006449
-0.031444
-0.011241
-0.062525
-0.020047
-0.029421
-0.019432
-0.036093
-0.042038
-0.038951
-0.030039
-0.010004
0.012390
0.096550
0.136743
0.252334
0.366574
0.480342
0.604625
0.725185
0.819922
0.890094
0.952628
0.962929
0.927266
0.856319
0.787021
0.665593
0.525722
0.379772
0.252719
0.111969
0.037882
-0.062384
-0.104826
-0.111020
-0.118707
-0.120551
-0.127251
-0.094330
-0.052559
-0.058935
-0.019543
-0.013137
0.020481
0.041805
0.047356
0.050696
0.071448
0.088507
0.104738
0.086650
0.093581
0.110674
0.079274
0.112789
0.103318
0.112498
0.131162
0.122225
0.142569
0.134904
0.154045
0.150975
0.124051
0.162361
0.169856
0.180106
0.148929
0.204960
0.208677
0.200916
0.167768
0.203903
0.212382
0.247209
0.267783
0.230216
0.229201
0.230963
0.251148
0.247160
0.260245
0.251794
0.279389
0.242487
0.252583
0.272629
0.279550
0.296897
0.294566
0.259336
0.285358
0.272170
0.282909
0.320320
0.315047
0.307981
0.309759
0.286069
0.283496
0.293808
0.311884
0.306843
0.309021
0.295818
0.319024
0.312131
0.286701
0.308933
0.264329
0.264398
0.254165
0.292129
0.259869
0.248642
0.264557
0.254135
0.270535
0.255003
0.247821
0.253340
0.253747
0.237772
0.248818
0.208881
0.183176
0.198141
0.206558
0.189607
0.180572
0.170830
0.197412
0.170433
0.162380
0.178420
0.148936
0.149465
-0.000339
0.004967
0.003775
0.014672
0.014057
0.013656
0.023956
0.023387
0.005133
0.012606
0.046312
0.000818
0.036634
0.057876
0.007881
0.018964
0.035031
0.044561
0.059387
0.055479
0.041418
0.088830
0.079813
0.102503
0.109446
0.131959
0.130971
0.120075
0.130468
0.113418
0.133506
0.129808
0.155041
0.142753
0.145715
0.150054
0.149042
0.140789
0.134369
0.103196
0.087000
0.083248
0.082661
0.084474
0.047807
0.086715
0.043895
0.077503
0.030725
0.029844
0.054932
0.041531
0.039033
0.017143
-0.006834
0.012122
0.004728
-0.028322
0.018301
0.012868
-0.028689
0.014919
-0.070005
-0.042710
-0.048349
-0.031233
-0.083072
-0.045385
-0.006741
0.014646
0.101717
0.152697
0.256330
0.328338
0.445365
0.585032
0.696455
0.807863
0.931175
0.942150
0.963559
0.946361
0.889400
0.740146
0.655446
0.521557
0.367831
0.264167
0.109184
0.026344
-0.050524
-0.098346
-0.144482
-0.111038
-0.128646
-0.133526
-0.093273
-0.056431
-0.043527
-0.023687
-0.004790
0.022669
0.083957
0.063163
0.074209
0.047283
0.074911
0.075864
0.078449
0.114674
0.123057
0.105450
0.114390
0.105818
0.134772
0.111453
0.128849
0.116879
0.160451
0.157080
0.180956
0.130681
0.155742
0.146734
0.190722
0.207314
0.189645
0.172215
0.218661
0.184731
0.217020
0.189272
0.188397
0.258681
0.233452
0.248035
0.231790
0.261745
0.248903
0.270392
0.255363
0.232027
0.273368
0.269438
0.259871
0.286130
0.279116
0.270798
0.299863
0.267130
0.275794
0.309217
0.291188
0.306579
0.295600
0.298453
0.265828
0.339454
0.299458
0.308215
0.303428
0.309350
0.307196
0.297674
0.275090
0.275248
0.281055
0.290753
0.299246
0.273633
0.288826
0.265321
0.272662
0.265693
0.255723
0.256504
0.251245
0.255187
0.237683
0.240444
0.249888
0.223676
0.211221
0.234237
0.211066
0.204093
0.192920
0.202354
0.190076
0.146286
0.160113
0.174153
0.181419
0.181892
0.145990
0.023265
0.016463
-0.018239
-0.027628
0.000907
0.006517
0.011352
-0.012570
0.000037
0.009955
0.003507
0.025562
0.012268
0.036266
0.033760
0.033233
0.066336
0.089612
0.038790
0.085199
0.068937
0.074974
0.089273
0.083563
0.110895
0.148585
0.129773
0.101415
0.136393
0.120761
0.165831
0.134975
0.167239
0.157358
0.116698
0.114503
0.135910
0.126217
0.089104
0.099588
0.093500
0.090788
0.095471
0.088594
0.085504
0.077997
0.066394
0.056075
0.078923
0.056031
-0.004124
-0.011619
0.029934
-0.004328
-0.002607
0.022666
0.008003
0.000729
-0.026024
-0.019508
-0.027961
-0.028968
-0.028421
-0.032944
-0.064745
-0.044589
-0.066422
-0.029118
-0.010128
-0.001067
0.091838
0.142737
0.234930
0.367733
0.475244
0.614477
0.715555
0.807308
0.926084
0.979182
0.935855
0.928253
0.849788
0.774165
0.635421
0.521657
0.368034
0.261750
0.114159
0.010798
-0.063159
-0.082035
-0.127214
-0.136102
-0.132662
-0.104686
-0.091441
-0.041345
-0.032924
-0.007620
-0.018954
0.055661
0.053174
0.070022
0.081469
0.056321
0.085160
0.059169
0.078334
0.113753
0.073047
0.105868
0.089884
0.117195
0.132508
0.117826
0.148867
0.129841
0.139683
0.169374
0.145784
0.139408
0.197054
0.166911
0.188913
0.186123
0.173567
0.191429
0.198051
0.221892
0.210624
0.206068
0.210777
0.228630
0.222616
0.244890
0.219882
0.253729
0.253755
0.267012
0.234573
0.281178
0.273380
0.268784
0.271500
0.242730
0.296885
0.292152
0.282331
0.284249
0.318151
0.293816
0.334374
0.306587
0.300407
0.307226
0.289782
0.290048
0.315964
0.264706
0.283931
0.302217
0.320559
0.314805
0.270431
0.289060
0.278218
0.270562
0.266576
0.285443
0.279625
0.286846
0.277655
0.257686
0.228784
0.276247
0.239179
0.259807
0.242230
0.223527
0.240467
0.228021
0.218737
0.199045
0.194832
0.196992
0.182877
0.162589
0.221832
0.176535
0.171507
0.157646
0.161603
0.171502
0.168857
0.008105
-0.009938
-0.010343
-0.002096
-0.004456
-0.019765
-0.007083
0.029266
-0.005043
0.013655
0.029973
0.008312
0.045775
0.010673
0.039470
0.040786
0.026134
0.050181
0.078611
0.078788
0.060614
0.070702
0.099266
0.074634
0.109786
0.113346
0.111239
0.132174
0.154784
0.132360
0.164162
0.142234
0.128082
0.150961
0.124290
0.130345
0.146869
0.125974
0.117020
0.122282
0.107283
0.107967
0.083008
0.089048
0.076635
0.073307
0.075061
0.042216
0.048411
0.031829
0.026058
0.009556
0.021758
0.038242
0.015882
0.016001
0.005009
-0.017134
-0.001128
-0.020909
-0.025990
-0.018756
-0.008252
-0.051389
-0.051173
-0.044637
-0.038618
-0.049971
-0.000631
0.035687
0.085586
0.153233
0.236952
0.338771
0.469842
0.575151
0.711667
0.840161
0.903425
0.947046
0.962626
0.943486
0.895738
0.781693
0.662339
0.530636
0.367668
0.233964
0.130592
0.053692
-0.030890
-0.084173
-0.105673
-0.130862
-0.146076
-0.099882
-0.093695
-0.071894
-0.033524
-0.020146
0.011780
0.031697
0.045703
0.046075
0.066942
0.063623
0.068780
0.083104
0.065625
0.111628
0.101412
0.102736
0.107510
0.088475
0.119938
0.137993
0.125943
0.149011
0.133199
0.135997
0.156392
0.174565
0.141089
0.186222
0.154025
0.182513
0.188257
0.190879
0.188047
0.182356
0.219522
0.221884
0.200596
0.230853
0.231668
0.231827
0.241527
0.249194
0.239697
0.247731
0.276741
0.305272
0.249278
0.295917
0.262265
0.279289
0.288098
0.292542
0.304984
0.303370
0.299408
0.303394
0.307998
0.307381
0.305274
0.313129
0.306935
0.297327
0.314066
0.296169
0.287940
0.297838
0.305892
0.303196
0.279206
0.294958
0.308270
0.287620
0.282208
0.283518
0.288857
0.300003
0.272625
0.271513
0.253339
0.249385
0.229105
0.278900
0.248640
0.248578
0.226006
0.193324
0.231526
0.227555
0.191248
0.197721
0.215383
0.188909
0.216558
0.162753
0.179376
0.173326
0.183296
0.148034
0.162115
-0.010420
0.013632
0.018968
0.034713
0.021421
-0.022174
0.004387
0.011885
0.020520
-0.010814
0.009874
-0.014970
0.026840
0.028611
0.044027
0.044385
0.032151
0.053130
0.078680
0.031387
0.058025
0.080571
0.102287
0.071175
0.108343
0.113506
0.101093
0.138407
0.137323
0.140335
0.161736
0.171524
0.136782
0.186797
0.132557
0.144235
0.121513
0.153737
0.123727
0.096412
0.142838
0.104904
0.098955
0.077888
0.089472
0.070453
0.080729
0.044366
0.037436
0.033495
0.037941
0.017961
-0.022481
0.015237
-0.001575
0.002051
0.013786
-0.012679
-0.018256
-0.002177
-0.020068
-0.000353
-0.066712
-0.041181
-0.073256
-0.034681
-0.044256
-0.043669
-0.001603
0.014691
0.062869
0.155493
0.255925
0.362300
0.494936
0.567582
0.751601
0.840907
0.913955
0.958188
0.963873
0.922700
0.870272
0.788745
0.671524
0.514475
0.364543
0.255783
0.123714
0.030075
-0.054669
-0.092210
-0.139337
-0.149461
-0.168807
-0.115438
-0.070154
-0.089316
-0.041099
-0.002320
0.036747
0.038295
0.064935
0.060524
0.033568
0.035142
0.060400
0.075461
0.097742
0.083360
0.085566
0.130447
0.119764
0.098965
0.109137
0.126532
0.129029
0.151519
0.129656
0.162504
0.137495
0.146685
0.163896
0.175188
0.188787
0.182221
0.209598
0.167833
0.185557
0.226430
0.166066
0.186954
0.217814
0.218076
0.232558
0.236422
0.273731
0.258464
0.269581
0.272297
0.270862
0.267602
0.249966
0.264743
0.288723
0.283519
0.289694
0.262985
0.300257
0.272586
0.286715
0.298112
0.284310
0.307516
0.284871
0.317760
0.286704
0.300405
0.308170
0.305825
0.306393
0.302101
0.309158
0.289487
0.300758
0.287051
0.278210
0.302463
0.274741
0.296730
0.282911
0.244913
0.266914
0.259765
0.266256
0.243069
0.279973
0.262292
0.228961
0.258009
0.251912
0.226100
0.203383
0.243142
0.187787
0.205199
0.217079
0.211296
0.166847
0.187757
0.181168
0.208614
0.174547
0.162278
0.145417
0.013166
-0.006066
0.007283
-0.012816
0.007198
-0.011662
0.009217
0.011026
0.037387
0.017584
0.013480
0.033786
0.032882
0.049500
0.062666
0.063127
0.043767
0.057172
0.067585
0.018932
0.085969
0.079375
0.079585
0.115326
0.121575
0.077307
0.145458
0.164702
0.132317
0.134370
0.152090
0.161009
0.162615
0.153833
0.159266
0.157388
0.121442
0.114797
0.122738
0.126340
0.123346
0.105739
0.078623
0.131819
0.084260
0.047962
0.057341
0.027631
0.056925
0.043950
0.028151
0.031725
0.031047
0.019230
-0.004028
0.010433
0.031668
-0.004313
-0.020866
-0.048875
-0.021723
-0.020637
-0.048108
-0.062138
-0.046261
-0.056956
-0.051770
-0.030818
-0.001337
0.051644
0.072025
0.129936
0.252754
0.340317
0.470207
0.624460
0.736336
0.831026
0.910830
0.959888
0.976105
0.928631
0.892748
0.792408
0.668446
0.471214
0.392440
0.247921
0.116641
0.039025
-0.064329
-0.106640
-0.134297
-0.139216
-0.126079
-0.110576
-0.111174
-0.059430
-0.009596
-0.010122
0.016130
0.025976
0.039078
0.036886
0.074960
0.044750
0.062723
0.099867
0.076368
0.093583
0.105823
0.102582
0.108452
0.104073
0.128301
0.161747
0.130614
0.120006
0.140812
0.169049
0.128775
0.151474
0.156705
0.172866
0.181213
0.200502
0.184650
0.185042
0.208750
0.225779
0.206568
0.230255
0.213298
0.203060
0.232548
0.234970
0.214519
0.233096
0.246403
0.260778
0.251271
0.271768
0.265872
0.271888
0.256278
0.248380
0.271742
0.261197
0.286374
0.277895
0.307657
0.281501
0.327860
0.286039
0.292770
0.288204
0.275703
0.323161
0.295273
0.300280
0.302504
0.308785
0.312932
0.296007
0.321488
0.286399
0.274552
0.274313
0.263390
0.285780
0.276433
0.297001
0.275970
0.290040
0.272445
0.269641
0.228989
0.278376
0.242049
0.239210
0.244796
0.236808
0.203849
0.215062
0.234313
0.231844
0.201431
0.189835
0.193647
0.173842
0.198190
0.175051
0.171388
0.143518
0.173643
0.011234
