-0.006543
0.000240
-0.009572
0.017578
0.014661
0.035909
-0.015996
0.011505
0.012670
-0.004037
0.030284
0.011719
0.027191
0.001298
0.024325
0.044790
0.026257
0.056423
0.049505
0.072922
0.062275
0.054546
0.086551
0.113229
0.113852
0.135831
0.141545
0.131602
0.164713
0.140888
0.137580
0.140061
0.128478
0.129239
0.160571
0.136247
0.125440
0.143086
0.130823
0.125074
0.108513
0.118448
0.073581
0.076744
0.069906
0.070798
0.079968
0.057608
-0.000621
0.026351
0.003474
0.023492
0.009889
0.010580
0.003625
-0.005719
0.000193
-0.012046
-0.019282
-0.013409
-0.044200
-0.022439
-0.040479
-0.060072
-0.057664
-0.033731
-0.019301
-0.035775
-0.032554
-0.008100
-0.041193
-0.024908
-0.003788
0.014529
0.051627
0.073480
0.083316
0.146396
0.191872
0.251623
0.291383
0.356008
0.441221
0.481867
0.524134
0.617592
0.685722
0.754652
0.785701
0.872172
0.907791
0.974406
0.989823
0.983467
0.993300
0.991146
0.999272
0.968056
0.935505
0.897530
0.831231
0.755225
0.698021
0.590678
0.601453
0.494318
0.457186
0.385113
0.341390
0.259500
0.206609
0.151101
0.115893
0.085615
0.077542
0.076885
0.081280
0.087779
0.096494
0.107780
0.112652
0.182941
0.176160
0.264831
0.288603
0.312037
0.365979
0.416429
0.434814
0.510300
0.531462
0.556567
0.610151
0.680479
0.710828
0.711256
0.736273
0.755231
0.754048
0.783713
0.815472
0.799884
0.795336
0.773770
0.772445
0.746158
0.756711
0.754671
0.682170
0.661281
0.650308
0.616690
0.599653
0.561738
0.539255
0.510607
0.511029
0.482736
0.445381
0.403403
0.425708
0.412285
0.398527
0.356640
0.370562
0.358062
0.334905
0.338121
0.324863
0.285040
0.288625
0.273621
0.295906
0.272995
0.248935
0.265296
0.256565
0.246655
0.248534
0.228402
0.222122
0.212379
0.218036
0.205517
0.175632
0.220737
0.194500
0.203344
0.200749
0.168792
0.201907
0.156166
0.155623
0.148285
0.180465
0.164830
0.162171
0.124370
0.140943
0.135096
0.115086
0.058929
0.116931
0.125966
0.096632
0.090530
0.110975
0.100471
0.082624
0.078130
0.079715
0.066083
0.073607
0.045533
0.078449
0.077568
0.052550
0.064231
0.025652
0.038375
0.059016
0.007844
0.042797
0.043897
0.052696
0.010843
0.027272
0.034054
0.041250
0.049951
0.028208
0.015040
-0.009185
0.005893
-0.008364
0.008322
-0.013094
0.010277
0.018410
0.041405
0.009000
-0.008787
-0.011890
-0.018844
0.015223
0.005727
0.038494
0.012954
0.030162
-0.017757
0.004476
-0.003302
-0.008574
0.006246
0.003166
0.031452
-0.015419
0.000917
0.003805
-0.011338
-0.001474
0.009878
0.014450
-0.003641
0.000589
0.004255
-0.002518
-0.034752
0.037708
0.006865
-0.035276
0.003778
0.006389
-0.028618
-0.000147
0.002151
0.014054
-0.014910
-0.014355
0.007066
-0.022439
0.017032
0.005589
-0.028860
0.000539
0.027890
0.022356
0.041871
-0.017912
-0.017504
-0.028468
-0.012701
0.007670
0.004769
0.004834
0.003010
-0.025734
-0.004335
0.003468
0.000515
-0.022799
-0.004193
0.027068
0.027055
-0.029077
0.015966
-0.001941
-0.020110
0.016496
-0.010476
0.005336
0.018899
-0.006482
-0.028745
0.003217
-0.011973
-0.000517
0.007170
-0.003786
0.004725
-0.004758
-0.007584
0.022983
0.026297
0.006362
0.017603
-0.009782
-0.015066
0.008029
-0.006963
0.016254
0.018352
0.009654
0.024254
0.011619
0.002869
0.026682
0.037709
0.054969
0.051072
0.075675
0.087626
0.091225
0.102082
0.110223
0.136919
0.152685
0.130458
0.118436
0.151543
0.144582
0.150315
0.136523
0.145681
0.160483
0.153712
0.155404
0.135446
0.103664
0.107014
0.093347
0.086124
0.083608
0.075804
0.097834
0.063668
0.079580
0.054621
0.045018
0.037561
0.021938
0.019192
0.031626
0.038577
-0.003740
0.012378
-0.007537
-0.026373
-0.025309
-0.043262
-0.027396
-0.026434
-0.026500
-0.043921
-0.048041
-0.059154
-0.033427
-0.075228
-0.027307
-0.039547
-0.029871
0.001225
-0.009606
0.015713
0.035318
0.041156
0.112490
0.141391
0.197608
0.231670
0.283402
0.370065
0.416766
0.459798
0.531300
0.595864
0.701487
0.748048
0.798267
0.845556
0.896932
0.949576
0.941451
0.969384
0.998133
1.019191
0.953632
0.968684
0.939495
0.871391
0.837491
0.775968
0.722191
0.656439
0.552830
0.522740
0.422348
0.377094
0.303861
0.234723
0.239310
0.132917
0.141037
0.136113
0.083839
0.065794
0.081031
0.089537
0.107707
0.114547
0.129439
0.164755
0.202737
0.248956
0.252574
0.288654
0.373902
0.406048
0.470966
0.513965
0.568608
0.610624
0.623830
0.646310
0.692227
0.727976
0.745518
0.758334
0.780194
0.803334
0.796015
0.795575
0.759750
0.772365
0.758386
0.754405
0.746864
0.738017
0.707565
0.659010
0.655302
0.646416
0.612700
0.591118
0.532479
0.523522
0.510915
0.485286
0.452769
0.441400
0.424084
0.423635
0.425645
0.375577
0.367258
0.358354
0.324099
0.298371
0.309481
0.324323
0.313148
0.283176
0.292895
0.274139
0.276233
0.271364
0.285738
0.235878
0.240633
0.222940
0.254996
0.264807
0.226090
0.222742
0.213863
0.186655
0.175941
0.188487
0.168593
0.163006
0.174696
0.177031
0.181359
0.157411
0.163207
0.146798
0.151250
0.111738
0.115498
0.117254
0.129661
0.118798
0.109033
0.125542
0.102011
0.092219
0.112454
0.065717
0.089802
0.099484
0.064448
0.064018
0.073061
0.060454
0.045587
0.075977
0.060790
0.051838
0.046607
0.052332
0.058074
0.061563
0.054123
0.059410
0.029557
0.025038
0.026421
0.038508
0.052389
0.013954
0.017936
0.008465
0.004488
0.056015
0.016644
0.024722
0.010057
0.007288
-0.007842
0.029625
0.004507
0.007437
0.018904
0.002279
-0.017853
0.013964
0.019662
0.015498
0.016341
0.014877
0.021784
0.010224
-0.017700
0.001972
0.012693
-0.012873
0.012012
-0.007602
-0.001587
0.021483
-0.007152
-0.007865
-0.002599
0.006082
0.006774
-0.000462
0.015970
0.011572
-0.027096
-0.038851
0.002490
0.006073
-0.004370
0.002797
-0.007698
0.003412
-0.014928
0.012408
-0.021159
0.013095
-0.016277
-0.001731
-0.044215
0.001275
-0.000567
-0.007849
0.014172
-0.007903
0.015548
0.014791
-0.015934
-0.008427
0.001805
0.015505
0.025708
-0.000419
-0.004013
-0.008665
-0.002828
0.003924
-0.009488
0.006257
-0.001525
0.023539
0.005834
-0.028483
0.006761
0.021807
-0.005900
0.009826
0.004268
-0.000331
-0.012418
-0.020206
-0.002601
0.020872
0.004509
-0.009447
-0.003128
0.013182
-0.007201
0.015853
-0.011768
-0.000301
0.004009
-0.007124
0.021605
0.004104
0.024248
0.009896
0.010889
0.031212
-0.002821
0.040372
0.025186
0.054899
0.076282
0.052366
0.067697
0.070222
0.060775
0.064455
0.091996
0.111258
0.093168
0.100744
0.134450
0.131056
0.147015
0.136948
0.160193
0.150928
0.148761
0.160633
0.144697
0.147684
0.151797
0.150018
0.143122
0.104662
0.104091
0.134062
0.104661
0.075070
0.068735
0.064188
0.054651
0.054266
0.069093
0.000579
0.020958
0.019243
0.020174
0.017468
0.018467
0.015359
-0.003788
0.000673
-0.027570
-0.028082
-0.053251
-0.045558
-0.045361
-0.022425
-0.061555
-0.054349
-0.086218
-0.061495
-0.068225
-0.055843
-0.038499
-0.015469
-0.014127
0.026440
0.045871
0.074063
0.106222
0.167512
0.181171
0.230372
0.278122
0.361374
0.418915
0.490689
0.549030
0.604427
0.681578
0.738170
0.831160
0.866838
0.906664
0.924770
0.962291
0.971774
0.962950
1.001572
0.998219
0.964096
0.939867
0.893589
0.843844
0.776533
0.706412
0.649480
0.577547
0.513696
0.435600
0.358672
0.307581
0.276115
0.196714
0.196133
0.119431
0.128984
0.092762
0.081004
0.075187
0.085137
0.097278
0.089459
0.155390
0.176496
0.173454
0.245507
0.266101
0.340083
0.370030
0.400336
0.452491
0.472894
0.529162
0.582142
0.610435
0.637547
0.694960
0.706502
0.723933
0.755181
0.784622
0.790956
0.771397
0.780457
0.760491
0.769740
0.769625
0.782730
0.718115
0.745630
0.680249
0.642341
0.659167
0.637730
0.584913
0.575590
0.531808
0.527667
0.489380
0.473158
0.433384
0.456509
0.426830
0.381545
0.387799
0.378649
0.336370
0.315462
0.329182
0.325234
0.302241
0.294847
0.284555
0.286384
0.278334
0.261225
0.271067
0.285670
0.240741
0.232928
0.249274
0.240730
0.212548
0.225651
0.230968
0.236290
0.188822
0.199940
0.192164
0.210059
0.195909
0.189190
0.171863
0.168045
0.169872
0.178201
0.146996
0.155567
0.158820
0.137476
0.140305
0.115167
0.121308
0.122549
0.121666
0.103299
0.130491
0.062478
0.098108
0.115932
0.097837
0.101787
0.074032
0.054957
0.066662
0.061989
0.053663
0.054361
0.052163
0.094684
0.054610
0.040559
0.037834
0.034597
0.041149
0.048459
0.035617
0.037977
0.044029
0.046553
0.014308
0.030515
0.013543
0.012935
0.043575
0.011734
0.044709
0.025681
0.008693
0.027033
-0.005401
-0.026323
0.025975
0.021802
0.041437
-0.005148
0.023175
0.008291
-0.010417
0.010701
0.018860
0.004438
-0.015349
0.013566
0.003312
-0.001517
-0.003686
-0.018733
0.017713
0.011417
-0.013085
0.021256
0.019339
-0.028301
0.011742
-0.011401
-0.010636
0.004128
-0.006914
-0.002873
0.013870
-0.002206
-0.001125
0.007565
0.002091
-0.002001
-0.001341
-0.008457
-0.002584
-0.001840
-0.005965
-0.009563
0.004984
-0.034764
-0.020566
0.011681
-0.002409
-0.003593
-0.012428
0.008744
-0.008811
-0.002336
0.017007
-0.013125
0.008918
0.002339
-0.013001
-0.020523
-0.000932
0.000391
0.014616
-0.015173
-0.027014
-0.003388
0.001708
-0.010010
0.015328
-0.002284
-0.004900
-0.014283
0.011726
0.017816
0.014289
0.010801
-0.015997
-0.002751
0.006903
-0.000471
0.021426
-0.006924
-0.028838
-0.002820
0.021903
0.013165
0.014600
0.009414
-0.012065
0.013669
-0.021238
0.001909
0.027366
-0.005198
0.037544
0.016262
0.046695
0.022490
0.042591
0.023374
0.027094
0.055741
0.041511
0.056424
0.066964
0.070455
0.073975
0.108567
0.101986
0.113071
0.131532
0.155199
0.121313
0.132033
0.171526
0.127346
0.180841
0.148645
0.150930
0.132423
0.143402
0.123006
0.142201
0.132577
0.106196
0.101499
0.072117
0.071956
0.075083
0.037982
0.041507
0.029063
0.068243
0.031666
0.001267
0.016539
0.037779
0.003886
0.024308
-0.008801
0.001294
-0.007815
0.015798
0.021684
-0.006180
-0.049871
-0.046800
-0.045860
-0.051236
-0.048585
-0.034271
-0.034559
-0.040480
-0.058519
-0.043431
-0.029794
0.007027
0.048134
0.052703
0.067384
0.108894
0.128358
0.204326
0.215438
0.294877
0.356627
0.437427
0.461039
0.563281
0.626231
0.664308
0.751733
0.821333
0.843639
0.880676
0.955863
0.973139
0.987687
0.988488
1.005236
1.000759
0.944781
0.925817
0.863511
0.850919
0.758336
0.681450
0.636124
0.567953
0.523895
0.465719
0.371420
0.334366
0.263666
0.205062
0.180262
0.130220
0.120201
0.101311
0.084788
0.083751
0.044139
0.082636
0.113018
0.118526
0.160153
0.219495
0.229647
0.299704
0.299359
0.358815
0.417353
0.450992
0.478803
0.564858
0.579916
0.614807
0.654526
0.654069
0.711093
0.731308
0.761141
0.748616
0.759191
0.806492
0.768140
0.770203
0.771450
0.766444
0.729554
0.739522
0.706259
0.692189
0.690749
0.638785
0.610969
0.630273
0.578574
0.557422
0.514903
0.483603
0.473406
0.462467
0.440917
0.416944
0.416127
0.384015
0.392799
0.359288
0.342117
0.342857
0.318635
0.301791
0.311769
0.298431
0.290657
0.278691
0.262728
0.263617
0.256831
0.241115
0.245860
0.267773
0.238913
0.253989
0.205077
0.226821
0.222628
0.229978
0.228380
0.227522
0.195014
0.184719
0.187651
0.170696
0.162928
0.140727
0.198651
0.186605
0.147460
0.163598
0.142674
0.131753
0.132940
0.125467
0.140811
0.141627
0.101626
0.089292
0.133445
0.117513
0.087735
0.092117
0.064033
0.082614
0.081139
0.065119
0.050214
0.058696
0.076557
0.048402
0.051722
0.039189
0.033872
0.022325
0.057999
0.050445
0.026466
0.021110
0.005698
0.044053
0.000654
0.021585
0.012292
0.019014
0.033167
0.011668
0.034188
0.026197
0.013073
0.021982
0.007664
0.009438
0.007086
0.018961
0.020873
0.007741
0.019091
0.005298
0.006337
0.002187
-0.027835
0.011030
0.039026
-0.003171
-0.004581
-0.003157
0.010911
-0.005321
-0.011672
0.033948
0.012522
0.016812
-0.004833
0.034793
0.002161
0.005936
0.006690
-0.007567
0.011211
0.012127
-0.012856
0.013228
-0.015189
0.010421
-0.000743
-0.014263
-0.024121
-0.020967
-0.011658
0.014114
-0.036360
0.004636
-0.020257
0.014592
0.024300
-0.015673
-0.020334
-0.021697
0.008531
-0.009468
-0.001988
-0.005034
-0.001316
0.001257
0.002435
-0.013564
-0.003167
0.014968
0.014087
-0.008174
0.014117
-0.005629
-0.017260
0.034049
0.015725
0.001417
0.018826
-0.004359
0.010268
0.015958
0.006412
-0.024236
-0.002211
0.007794
-0.007233
-0.018949
-0.010808
0.005205
0.005891
-0.003861
0.001687
0.010744
-0.006698
0.015318
-0.001892
-0.001777
-0.018014
0.004024
0.000719
0.002027
0.008774
0.002287
0.006899
0.008977
0.007566
0.014958
0.037078
0.051028
0.042690
0.026272
0.022281
0.057297
0.106042
0.083676
0.084980
0.094012
0.105485
0.103092
0.117995
0.115564
0.133485
0.129122
0.130804
0.147843
0.149997
0.139755
0.151022
0.142052
0.168972
0.126660
0.117502
0.121512
0.112758
0.113631
0.089630
0.092979
0.094805
0.060587
0.039444
0.045104
0.016188
0.062255
0.046943
-0.004050
0.002958
0.003534
-0.010298
-0.007914
-0.006286
-0.015957
-0.004990
-0.036299
-0.001323
-0.035875
-0.051334
-0.035299
-0.026586
-0.037393
-0.044358
-0.075946
-0.072339
-0.043100
-0.037361
-0.061649
-0.030845
-0.004867
0.001451
0.045643
0.059978
0.104933
0.148351
0.208681
0.243977
0.311358
0.347538
0.427058
0.477307
0.536215
0.625498
0.678273
0.726179
0.783944
0.866129
0.894484
0.932781
0.958417
0.997089
1.008142
0.984313
0.998325
0.955409
0.961709
0.886942
0.843212
0.782586
0.697309
0.635193
0.541673
0.495252
0.434292
0.385439
0.293800
0.244296
0.213089
0.189608
0.119918
0.112933
0.075865
0.108070
0.048258
0.095225
0.101026
0.127690
0.146759
0.183476
0.189422
0.244955
0.261553
0.327568
0.364090
0.420901
0.459154
0.480649
0.511718
0.598278
0.618388
0.639611
0.669538
0.718166
0.735431
0.755364
0.739576
0.767781
0.787761
0.776342
0.789405
0.778295
0.776030
0.757656
0.716627
0.730744
0.698841
0.657189
0.643256
0.615784
0.570858
0.586341
0.511670
0.549829
0.483104
0.456565
0.487500
0.431478
0.432432
0.389455
0.366777
0.380589
0.359750
0.354736
0.333540
0.320453
0.308058
0.295646
0.294144
0.277220
0.287981
0.270577
0.271405
0.254964
0.267239
0.259665
0.225509
0.252693
0.228550
0.235673
0.236372
0.228484
0.221506
0.222960
0.181559
0.198891
0.193099
0.182081
0.166877
0.191616
0.171844
0.180215
0.135281
0.156114
0.143313
0.135211
0.143337
0.114520
0.126636
0.131830
0.102984
0.101000
0.132588
0.089872
0.100476
0.079163
0.071741
0.102234
0.065326
0.063284
0.049108
0.045304
0.058529
0.066638
0.038944
0.024991
0.045950
0.031246
0.049179
0.025853
0.052084
0.047757
0.017447
0.023547
-0.003024
0.030094
0.040399
0.009031
0.018447
0.004287
0.006927
-0.008232
0.003894
0.010425
0.016122
0.002022
0.002643
0.030322
0.017915
0.007049
0.002195
-0.007283
-0.001176
0.017354
-0.000115
0.011961
0.005630
-0.004387
0.020596
0.012170
0.016962
0.006092
0.005351
-0.010225
0.001876
-0.008518
-0.004928
-0.006363
-0.009517
0.023794
0.002035
-0.021685
-0.003222
-0.012724
0.015292
0.019826
-0.003364
-0.009238
0.000192
0.007729
-0.008817
0.003790
-0.012284
0.009389
0.020780
0.006772
-0.011913
0.005788
0.015705
0.010622
0.024805
0.007227
0.017560
0.022525
0.023345
0.018295
0.002090
-0.008264
0.020070
-0.011719
-0.004656
-0.000175
-0.005169
-0.029269
-0.014167
-0.016758
-0.003159
-0.002365
-0.017386
0.010555
0.005175
-0.011823
0.010459
-0.020713
0.000256
-0.011914
-0.020650
0.030175
-0.025162
0.003202
0.003367
-0.010768
0.025292
-0.000878
0.005052
0.025478
0.010982
-0.010325
-0.006085
-0.008980
0.026810
-0.020552
0.008052
-0.027235
-0.001981
0.022543
0.015092
0.006481
0.005203
-0.005312
0.015262
0.047145
0.050001
0.052139
0.030890
0.051605
0.070459
0.071833
0.063148
0.063355
0.093025
0.079263
0.091566
0.102767
0.132257
0.115337
0.136577
0.162974
0.162464
0.126969
0.150588
0.143673
0.136877
0.145121
0.156065
0.131777
0.144705
0.121939
0.103302
0.071812
0.088945
0.061569
0.050640
0.055871
0.052007
0.045758
0.052765
0.020738
0.038476
0.003238
-0.018574
0.007256
-0.009671
-0.000604
0.001295
-0.020075
-0.012927
-0.031097
-0.053837
-0.031444
-0.044907
-0.057599
-0.030020
-0.048706
-0.038734
-0.036564
-0.051762
-0.060108
-0.047600
-0.033196
0.007962
0.032832
0.034261
0.098377
0.098956
0.130978
0.199412
0.248569
0.307911
0.338086
0.452837
0.490896
0.537759
0.638867
0.698517
0.748995
0.823579
0.883420
0.895130
0.938976
0.948496
0.994293
0.995173
1.017166
0.997492
0.930020
0.961466
0.907795
0.829794
0.776030
0.707812
0.628310
0.593131
0.501368
0.433278
0.370050
0.336478
0.237519
0.198655
0.174003
0.109797
0.086369
0.091193
0.086637
0.065244
0.071795
0.116762
0.087512
0.121880
0.148474
0.186803
0.213226
0.299594
0.336219
0.392726
0.412489
0.450964
0.502487
0.533067
0.595062
0.610937
0.654883
0.696093
0.710640
0.753254
0.754032
0.768166
0.778474
0.789613
0.798848
0.774200
0.765017
0.781511
0.748622
0.751027
0.709194
0.706901
0.700902
0.658713
0.631919
0.604892
0.547503
0.524836
0.528829
0.515851
0.466046
0.487273
0.430583
0.419190
0.431410
0.398214
0.368660
0.345194
0.345429
0.313899
0.341580
0.312304
0.312170
0.302143
0.256368
0.272682
0.291031
0.272790
0.273212
0.275569
0.272974
0.244798
0.249915
0.237438
0.221125
0.228068
0.238672
0.227076
0.188358
0.228652
0.191634
0.194178
0.174402
0.221948
0.152952
0.161701
0.141019
0.172520
0.194161
0.142447
0.140384
0.105442
0.102322
0.131678
0.101407
0.117188
0.116806
0.113270
0.101672
0.088149
0.068250
0.105960
0.036263
0.094294
0.097496
0.055486
0.074918
0.078752
0.073680
0.048174
0.075281
0.051597
0.063743
0.047477
0.017193
0.071752
0.043949
0.059175
0.032180
0.048227
0.047249
0.041662
0.024222
0.048570
0.026055
0.043659
0.007007
0.011417
0.023773
0.039603
0.010493
0.003973
0.004370
0.023179
0.011677
0.000090
-0.002556
-0.001172
0.010760
-0.019306
0.000755
0.014802
0.016132
-0.011923
-0.006222
0.010305
0.024138
-0.010982
-0.012767
0.012051
0.015670
0.017345
0.027411
0.010399
0.006788
0.027975
-0.003116
0.028742
0.005719
-0.001878
-0.021460
-0.000154
0.008065
0.007284
-0.014728
-0.030487
0.004447
-0.013510
-0.025116
0.010576
-0.008193
0.034492
-0.014516
-0.000478
0.014244
0.034526
0.008864
0.006323
0.007826
0.002326
-0.000966
0.046452
-0.000195
-0.000928
-0.038120
0.008524
-0.033769
0.005321
0.013746
0.012159
-0.002159
-0.007855
0.014678
0.001644
-0.016052
-0.005659
-0.004319
0.010570
0.026444
-0.015708
0.000273
-0.011110
0.019079
-0.000775
0.016777
0.007543
-0.010173
0.010886
-0.006036
0.002915
-0.013765
-0.002858
0.004698
0.005440
0.002360
-0.003824
0.003080
-0.002078
0.008560
-0.005340
-0.003041
-0.005793
0.018239
0.030147
0.005315
0.018973
0.035110
0.048306
0.043332
0.056393
0.033726
0.020248
0.069975
0.069822
0.090042
0.106868
0.091015
0.119659
0.108087
0.117521
0.153944
0.107378
0.117433
0.140290
0.174053
0.153595
0.120465
0.155290
0.142767
0.167217
0.120697
0.131453
0.111656
0.164472
0.106473
0.099975
0.094795
0.087143
0.095948
0.026101
0.014553
0.049551
0.052548
0.024247
0.020372
0.011685
0.002195
-0.006431
0.005111
0.006445
-0.039391
-0.024109
-0.029554
-0.040894
-0.038887
-0.055138
-0.039706
-0.051464
-0.047821
-0.083251
-0.029885
-0.052254
-0.027752
-0.021779
-0.013538
0.000451
-0.003138
0.057410
0.061978
0.114644
0.132067
0.197755
0.230679
0.291205
0.348624
0.429860
0.480203
0.535184
0.612231
0.653559
0.755715
0.808230
0.850284
0.894313
0.924171
0.963119
0.968844
0.986822
1.013962
0.963646
0.958754
0.924421
0.888241
0.833918
0.752957
0.708832
0.641117
0.580455
0.504264
0.443785
0.348545
0.314253
0.247508
0.226489
0.157519
0.127480
0.123186
0.097282
0.059511
0.067812
0.097527
0.103453
0.098988
0.152478
0.172735
0.193332
0.252070
0.294595
0.334149
0.367428
0.407722
0.459500
0.476641
0.565858
0.555891
0.609403
0.650939
0.711956
0.715007
0.740931
0.772362
0.771730
0.782119
0.766269
0.780147
0.793766
0.794599
0.791192
0.742725
0.760157
0.707209
0.728608
0.694692
0.646246
0.638993
0.624928
0.571835
0.558641
0.529135
0.516687
0.476973
0.464517
0.450819
0.420337
0.388964
0.375453
0.367090
0.364365
0.339621
0.323989
0.333472
0.304655
0.309605
0.308886
0.288902
0.279786
0.296515
0.255334
0.269286
0.266967
0.251551
0.243994
0.223648
0.230926
0.207515
0.212665
0.212223
0.203412
0.197874
0.206297
0.185694
0.189685
0.167789
0.190470
0.194680
0.169683
0.173446
0.140608
0.132835
0.139423
0.130473
0.165216
0.150518
0.137065
0.120017
0.115271
0.115429
0.106823
0.098542
0.090343
0.082563
0.065869
0.097014
0.068410
0.083214
0.078596
0.048796
0.085571
0.044516
0.055136
0.044796
0.046296
0.045794
0.034488
0.055253
0.039159
0.035268
0.036496
0.022232
0.038076
0.020090
0.000726
0.048260
0.010464
0.034979
0.033249
0.027852
0.002817
0.038044
0.019094
0.023538
0.009618
0.016336
0.036668
0.028959
0.005578
0.002038
0.007508
0.016091
0.015241
-0.006673
0.007068
-0.007774
-0.002347
0.011932
0.009533
0.018433
0.000283
0.005596
-0.007906
-0.018112
0.000539
0.010750
-0.005922
0.013150
0.009377
0.000640
-0.009719
-0.021697
-0.018220
-0.003112
-0.013920
0.004484
0.009993
-0.003413
0.007498
-0.003764
0.020214
0.019751
0.022751
-0.005081
-0.013053
-0.011313
0.001593
0.003570
-0.013696
0.004630
-0.011138
0.022964
-0.024275
0.004602
-0.005820
-0.013370
-0.014509
-0.013319
-0.019897
-0.012441
-0.005296
0.008730
0.001752
-0.013143
0.003240
0.035358
0.000226
0.028436
-0.004038
-0.033722
-0.017816
0.000790
0.007181
0.002104
-0.039478
-0.007886
-0.010721
-0.020718
-0.000341
0.012617
-0.013479
-0.002738
-0.008433
0.031025
0.045719
0.011479
0.007501
-0.013763
0.020481
0.017730
-0.006897
-0.011808
-0.010301
0.008415
0.013910
-0.005805
0.037249
0.014775
0.019725
0.029539
0.048512
0.035861
0.036445
0.049723
0.045648
0.059666
0.075710
0.084227
0.105396
0.081855
0.103318
0.108159
0.140850
0.140867
0.115562
0.154906
0.150831
0.139512
0.147038
0.153016
0.138142
0.132431
0.144354
0.137765
0.120010
0.110401
0.105989
0.105850
0.078940
0.111246
0.076479
0.053828
0.053458
0.030039
0.050043
0.026606
0.029530
-0.012863
0.017444
0.012003
-0.000260
-0.004828
0.010126
-0.013381
-0.039726
-0.013016
-0.007332
-0.035612
-0.043466
-0.052406
-0.040874
-0.067136
-0.059369
-0.020903
-0.040033
-0.018755
-0.053349
-0.016798
-0.019056
0.014837
0.054381
0.051313
0.107522
0.177184
0.213459
0.253660
0.284427
0.360598
0.419036
0.481197
0.550071
0.644707
0.670940
0.761222
0.787262
0.859763
0.892507
0.958491
0.952684
0.981902
0.992363
0.985719
1.008557
0.942460
0.908123
0.878513
0.826714
0.769336
0.726926
0.657315
0.597476
0.520004
0.422872
0.385489
0.310426
0.261446
0.224343
0.149819
0.135118
0.113600
0.100183
0.071068
0.081246
0.058844
0.086599
0.104608
0.124970
0.173870
0.196689
0.239278
0.271219
0.353332
0.374741
0.442192
0.417033
0.511445
0.526218
0.602955
0.642568
0.652388
0.692137
0.706961
0.732509
0.756131
0.780623
0.758388
0.748282
0.791475
0.770750
0.769491
0.759728
0.770504
0.755411
0.727280
0.696261
0.676874
0.667329
0.649268
0.621810
0.576737
0.547060
0.520704
0.511139
0.464258
0.448129
0.427352
0.412852
0.413199
0.393900
0.399126
0.369242
0.345709
0.335524
0.326632
0.325344
0.308295
0.264234
0.308801
0.306162
0.268682
0.268142
0.264882
0.243655
0.251553
0.262201
0.225117
0.238590
0.225736
0.226768
0.225447
0.216712
0.214929
0.217022
0.210538
0.219636
0.134746
0.162297
0.149596
0.170744
0.169443
0.154508
0.134664
0.154284
0.117808
0.129663
0.119326
0.099392
0.091148
0.102996
0.133779
0.083957
0.096358
0.101693
0.086293
0.080355
0.071026
0.086106
0.080568
0.068642
0.051401
0.064247
0.072108
0.050360
0.052043
0.046495
0.070396
0.071293
0.055221
0.018069
0.034402
0.029605
0.034374
0.012031
0.031118
0.036621
0.045332
-0.000662
0.004478
0.009474
0.023842
0.023594
-0.004751
0.026361
-0.015007
0.000258
0.002762
-0.013139
0.018549
0.005021
0.031908
0.001277
0.012419
0.000643
0.005672
-0.003562
-0.010992
-0.030585
0.018232
0.001707
0.015706
0.008305
-0.010410
-0.017571
0.020345
0.023633
0.008863
-0.012766
0.026675
0.018994
-0.000756
-0.005450
0.019357
0.009931
-0.006516
0.019571
-0.005317
-0.017230
-0.010262
-0.028101
0.006998
0.016929
0.029832
-0.022101
-0.005589
-0.006732
-0.010199
-0.026146
-0.018963
-0.003007
0.003156
-0.011208
-0.017197
0.002613
-0.003907
-0.007007
0.000073
0.017083
-0.006272
-0.020597
0.011655
-0.001619
0.015122
-0.012461
0.017493
-0.001572
-0.028236
0.003896
-0.019649
-0.006681
-0.041247
-0.016127
-0.017574
-0.018122
-0.021226
0.021280
0.003393
-0.003094
-0.003019
0.021696
-0.026469
0.019667
0.010852
-0.012380
-0.005402
0.001399
-0.001687
0.006796
0.012798
0.012270
-0.010422
-0.014302
0.026178
0.017053
0.031784
0.013979
0.000908
0.026848
0.016392
0.010049
0.012923
0.036441
0.045770
0.032797
0.032292
0.055280
0.041903
0.074053
0.067042
0.092302
0.128581
0.105085
0.139016
0.118987
0.124350
0.173768
0.141857
0.164765
0.145492
0.145123
0.139877
0.106158
0.139935
0.110657
0.120298
0.129115
0.129470
0.106170
0.117912
0.112452
0.078180
0.076346
0.063505
0.055589
0.019794
0.034797
0.028689
0.013611
0.019102
0.034011
0.018124
0.007681
-0.028845
-0.024751
-0.014488
-0.034380
-0.038653
-0.039330
-0.031040
-0.060942
-0.079933
-0.060831
-0.042763
-0.064670
-0.066213
-0.040108
-0.043082
-0.029061
-0.030630
-0.010289
0.026290
0.082526
0.086508
0.118005
0.124457
0.164944
0.265593
0.294080
0.345822
0.432527
0.464619
0.545861
0.621876
0.688950
0.727947
0.812639
0.865274
0.904551
0.972820
0.968013
0.993834
1.003302
0.999178
1.005204
0.952665
0.902511
0.874612
0.830773
0.804759
0.717715
0.634122
0.572445
0.490506
0.468718
0.379771
0.306453
0.260526
0.205775
0.178564
0.138143
0.111879
0.098605
0.073409
0.102531
0.071814
0.080700
0.100409
0.111061
0.166103
0.214056
0.217683
0.276042
0.328684
0.345082
0.432055
0.450562
0.531721
0.525961
0.575728
0.594759
0.650176
0.684853
0.700456
0.746537
0.753716
0.789657
0.766491
0.814572
0.774254
0.774475
0.791585
0.776275
0.762509
0.719614
0.740601
0.713059
0.679440
0.672911
0.620836
0.610312
0.564976
0.541728
0.535390
0.481976
0.493860
0.468372
0.443808
0.433614
0.398666
0.378167
0.371852
0.355005
0.342900
0.316207
0.328935
0.322109
0.314546
0.296802
0.278109
0.257253
0.249824
0.260008
0.252917
0.265826
0.217037
0.258089
0.266952
0.233016
0.212468
0.230946
0.230374
0.212161
0.201280
0.184387
0.200032
0.214366
0.192350
0.193273
0.162704
0.144776
0.142689
0.158762
0.133458
0.147003
0.137319
0.129810
0.128117
0.110220
0.123629
0.119753
0.087814
0.082818
0.074367
0.107656
0.091795
0.071592
0.062758
0.086209
0.085273
0.069110
0.058376
0.067788
0.014518
0.034188
0.053818
0.052948
0.065812
0.069948
0.038440
0.061653
0.029517
0.046370
0.024479
0.045329
0.043978
0.033281
0.031887
0.004485
0.060348
0.019799
-0.002312
0.019731
0.027321
0.013138
0.013515
-0.000045
-0.002791
0.010576
-0.005718
0.012096
0.027981
-0.004187
0.004291
-0.031462
0.016105
0.018495
0.003701
0.010033
-0.021332
-0.013488
0.018749
0.028716
-0.003697
0.010367
0.007004
0.004858
0.000749
-0.003638
-0.004521
-0.019231
-0.032018
0.008511
0.003145
-0.013939
0.000225
-0.005951
-0.023210
0.016487
-0.000517
-0.005745
-0.006999
-0.002507
0.018537
-0.017808
0.000668
-0.030754
-0.002640
-0.005172
0.028727
-0.005169
0.003169
0.002625
-0.007366
0.022630
-0.011641
0.006610
-0.013561
-0.018067
-0.007995
-0.016706
0.013542
0.040808
-0.014328
-0.011344
0.009359
0.012012
0.003926
-0.011881
0.019595
0.019044
0.020320
0.008192
0.003753
0.022296
0.013450
-0.001268
-0.020446
-0.013547
0.010864
0.028993
-0.004736
-0.021562
-0.009853
0.003256
0.013003
0.000282
-0.023200
0.006612
-0.027577
0.014688
0.014718
0.015007
0.016455
-0.006103
0.009830
0.038869
0.004900
0.017147
0.011720
0.020549
-0.012153
0.023713
0.049483
0.055440
0.045230
0.060287
0.066938
0.068617
0.073015
0.074338
0.114751
0.083082
0.111546
0.132962
0.135714
0.132961
0.126968
0.150340
0.167022
0.161536
0.145351
0.142855
0.151675
0.117497
0.160100
0.137030
0.130945
0.109308
0.093629
0.098196
0.103075
0.092159
0.054193
0.057409
0.051962
0.021086
0.014465
0.024523
-0.007431
0.002132
0.007666
0.002675
0.001284
-0.000568
-0.011611
-0.029908
0.007692
-0.010152
-0.039791
-0.027216
-0.045292
-0.051503
-0.046782
-0.064551
-0.050462
-0.025066
-0.071980
-0.026441
0.004571
-0.008300
0.022375
0.051824
0.068525
0.099718
0.139119
0.176262
0.222821
0.278366
0.358810
0.414835
0.503466
0.537544
0.620464
0.690426
0.754416
0.776910
0.870461
0.904261
0.931311
0.949942
1.000203
0.988675
0.992891
0.974818
0.966948
0.930039
0.883077
0.810205
0.816168
0.688846
0.630969
0.571627
0.488599
0.432029
0.403724
0.297182
0.259664
0.220760
0.155822
0.133045
0.092438
0.076328
0.102834
0.069661
0.106139
0.109140
0.104926
0.119454
0.183340
0.211874
0.265490
0.283493
0.331387
0.374057
0.414661
0.427993
0.505853
0.550909
0.554127
0.610824
0.626756
0.680104
0.716011
0.733870
0.731693
0.745539
0.771173
0.788296
0.762961
0.773734
0.771600
0.766455
0.770509
0.718148
0.744495
0.681356
0.679933
0.673817
0.615265
0.589723
0.584657
0.552218
0.506712
0.523732
0.483402
0.465561
0.450033
0.437117
0.414113
0.379201
0.377330
0.351440
0.322449
0.342635
0.329693
0.314717
0.279102
0.303976
0.281792
0.272835
0.299608
0.272973
0.277988
0.261823
0.270460
0.260594
0.242730
0.239131
0.219396
0.216847
0.212800
0.217166
0.221475
0.215291
0.165206
0.186687
0.155596
0.180504
0.157935
0.145914
0.119054
0.150374
0.146383
0.128014
0.136486
0.117576
0.107872
0.114779
0.128549
0.134660
0.098998
0.100396
0.088121
0.077601
0.106993
0.108004
0.088201
0.080589
0.087300
0.085780
0.059333
0.070705
0.056669
0.069990
0.051505
0.049262
0.088856
0.052693
0.041868
0.031740
0.028969
0.039055
0.014149
0.040118
0.006664
0.013442
0.016731
0.023115
0.054645
0.030790
-0.008804
0.045759
-0.000585
0.000307
-0.018819
0.020855
0.001075
0.003969
0.026248
0.002203
-0.012391
-0.001228
0.041571
0.024199
0.001185
-0.009570
-0.023589
0.027622
0.007029
-0.019558
0.006980
-0.003403
0.022400
0.022755
0.041990
-0.006893
0.001366
-0.037341
0.003547
0.014305
0.025071
-0.001305
0.005255
0.014507
0.009841
-0.009328
-0.009317
-0.006431
-0.009807
0.003830
0.001436
0.009204
0.001916
-0.011280
-0.009954
0.013455
0.007339
-0.005096
0.007118
-0.004981
0.001307
-0.023772
0.009029
-0.037788
0.000464
-0.001374
-0.018747
-0.003844
-0.007553
0.018988
-0.011188
0.025249
0.020432
-0.003739
0.002167
-0.018453
-0.014183
0.003363
0.015653
-0.007094
-0.030278
0.008400
-0.004487
0.011019
0.003844
0.011181
0.004879
-0.008045
-0.026008
-0.017838
0.023558
0.000333
-0.028458
0.011036
0.001693
0.003431
-0.006547
0.012090
0.005222
-0.013957
0.004713
-0.010167
-0.014180
-0.000888
0.003895
0.001773
0.024268
0.026188
0.011570
0.032357
0.042732
0.020422
0.049712
0.039184
0.050726
0.068403
0.039011
0.075366
0.069336
0.067141
0.091130
0.106836
0.095963
0.125254
0.122193
0.163567
0.142674
0.159062
0.138603
0.152354
0.144764
0.143873
0.184460
0.151129
0.127725
0.128271
0.105703
0.121341
0.080095
0.112105
0.087732
0.090134
0.063833
0.059269
0.047563
0.050931
0.036724
0.017169
0.036849
0.009431
-0.002865
-0.006181
0.007196
-0.008863
-0.005351
-0.047634
-0.030905
-0.043117
-0.032629
-0.038708
-0.069710
-0.059043
-0.049182
-0.048562
-0.041777
-0.031612
-0.046194
-0.038391
-0.009946
-0.010354
0.003831
0.032365
0.045407
0.105346
0.152114
0.209677
0.216012
0.293836
0.360126
0.405944
0.496841
0.548200
0.610149
0.672679
0.748604
0.803840
0.839143
0.929718
0.945573
0.961173
0.992614
0.979838
0.984241
0.951045
0.955579
0.946548
0.858936
0.827254
0.761522
0.720938
0.649108
0.594155
0.522058
0.464033
0.351505
0.338875
0.298819
0.195713
0.169296
0.150946
0.098313
0.067538
0.043312
0.070181
0.091006
0.099982
0.078235
0.125830
0.158427
0.174328
0.224810
0.272668
0.331220
0.360651
0.429927
0.442627
0.493118
0.561191
0.577135
0.609043
0.659125
0.664833
0.729800
0.743716
0.766011
0.795698
0.783943
0.802388
0.807277
0.780156
0.785284
0.740116
0.753337
0.757910
0.707911
0.659855
0.699612
0.662921
0.649602
0.598596
0.560680
0.549814
0.522502
0.499256
0.474753
0.445805
0.450854
0.410705
0.414371
0.426979
0.370875
0.360775
0.344662
0.325151
0.340749
0.293438
0.290901
0.298582
0.296737
0.285251
0.260226
0.264909
0.270279
0.272472
0.258661
0.254683
0.252265
0.257520
0.230034
0.218999
0.223374
0.180454
0.218385
0.201741
0.190714
0.189648
0.178033
0.170208
0.183735
0.172595
0.181222
0.163601
0.179571
0.164426
0.147110
0.131319
0.101660
0.119729
0.135289
0.101852
0.105219
0.116018
0.104546
0.081263
0.104916
0.106930
0.063108
0.066252
0.073893
0.079277
0.072768
0.035743
0.040795
0.064776
0.065821
0.050812
0.058815
0.048312
0.039650
0.045212
0.043113
0.047945
0.015211
-0.006279
0.027660
0.028023
0.040741
0.039391
0.024195
0.037436
0.036851
0.019964
0.022753
0.043454
0.031358
-0.009962
0.010242
-0.002041
0.020269
0.009773
0.014691
0.015267
-0.002077
-0.012080
0.004985
-0.009041
0.028332
-0.009518
-0.012878
0.033034
-0.023336
-0.010516
-0.002251
0.013357
-0.008954
0.027485
-0.013761
0.033667
-0.005507
-0.002612
-0.007006
0.019933
-0.026445
0.015750
0.001519
0.025083
-0.007878
-0.006103
-0.003657
0.019564
-0.002794
0.029015
-0.016714
0.014417
-0.002489
-0.012838
0.008465
-0.001900
-0.013685
0.019868
0.040664
-0.012466
0.010364
0.012249
-0.015504
0.000220
0.007426
0.017894
-0.015706
0.013433
-0.000275
-0.016086
-0.018116
0.023903
-0.023854
-0.008793
0.007699
0.020455
0.019068
0.013905
-0.019224
0.000825
0.014323
-0.006856
-0.007744
0.007795
-0.003395
-0.012486
-0.007925
-0.008245
-0.002238
-0.021473
-0.003446
-0.000336
-0.002098
-0.020117
0.002568
0.013891
0.018560
-0.021408
0.006058
-0.009197
0.003062
0.015523
0.013522
0.006705
0.043339
-0.006889
0.014784
0.007391
0.013518
0.050503
0.009218
0.066419
0.040997
0.048930
0.048928
0.063188
0.072142
0.084052
0.105279
0.086554
0.094918
0.130475
0.149849
0.145249
0.140315
0.155971
0.154777
0.152412
0.145424
0.143760
0.140898
0.147530
0.157236
0.116461
0.109581
0.137860
0.107784
0.062367
0.065729
0.059738
0.059501
0.059940
0.041572
0.019558
0.031308
0.018231
0.030774
-0.021891
-0.011078
0.015725
0.020689
-0.005024
-0.042189
-0.009269
-0.013308
-0.045985
-0.056829
-0.036038
-0.047262
-0.029895
-0.039039
-0.052997
-0.040126
-0.049879
-0.049347
-0.008154
-0.010923
0.001065
0.027252
0.040667
0.061266
0.111442
0.138394
0.179045
0.242101
0.265521
0.338642
0.418555
0.485383
0.556397
0.594079
0.714624
0.743820
0.829088
0.861603
0.889554
0.941327
0.989245
1.007034
1.001948
0.978318
0.990377
0.944006
0.893484
0.866058
0.858445
0.769357
0.703585
0.640627
0.561304
0.540456
0.440522
0.378229
0.333041
0.273769
0.186304
0.159026
0.134127
0.089124
0.067060
0.083620
0.049047
0.089029
0.085905
0.119259
0.129652
0.155233
0.214463
0.259116
0.286798
0.323493
0.335509
0.409722
0.494602
0.472696
0.541763
0.582581
0.626700
0.661123
0.689534
0.722447
0.730589
0.763263
0.756695
0.802110
0.787476
0.801581
0.789449
0.792383
0.754554
0.746317
0.734188
0.729854
0.694942
0.666015
0.664432
0.598637
0.606309
0.597058
0.531468
0.521706
0.516543
0.496801
0.453264
0.457339
0.431642
0.432653
0.404270
0.346953
0.342922
0.360675
0.353578
0.314180
0.330365
0.307672
0.282014
0.273866
0.290864
0.279298
0.268292
0.269929
0.247064
0.257146
0.241156
0.237192
0.205655
0.261894
0.235288
0.234909
0.209157
0.188989
0.209048
0.209178
0.237470
0.195101
0.186070
0.177071
0.187633
0.171927
0.137148
0.151504
0.141486
0.129058
0.121939
0.141234
0.122370
0.117380
0.097552
0.099929
0.106636
0.096937
0.094333
0.092335
0.066627
0.067352
0.063043
0.087604
0.039352
0.068751
0.083868
0.033521
0.080769
0.032521
0.066300
0.023456
0.061114
0.051042
0.029996
0.062039
0.046862
0.060335
0.046086
0.019089
0.022094
0.006759
0.033729
0.019590
0.000651
0.006574
-0.024145
0.016041
0.017434
-0.009459
0.017067
0.014014
-0.012923
-0.000079
0.004652
0.011690
0.007599
0.016443
0.028202
0.005485
0.026021
-0.016179
0.016880
0.020156
-0.014588
-0.011529
-0.004837
-0.014007
-0.000935
-0.008554
0.008717
0.003872
0.014488
0.023932
-0.016129
-0.003202
-0.000261
0.005751
0.015134
0.001339
-0.011277
0.008331
0.013953
-0.001456
-0.005874
-0.003641
-0.004550
0.015262
0.003224
0.000881
-0.002312
0.017630
0.010761
-0.001756
-0.012522
-0.001838
0.001189
-0.001838
0.004180
0.011470
0.008487
0.000234
0.026972
0.030783
0.036895
0.000703
-0.013447
0.006311
0.033956
0.013118
-0.042257
0.021910
0.005879
0.006990
-0.024106
0.002691
0.011219
0.021262
0.014305
0.002109
0.008095
0.013461
-0.005247
0.002028
-0.011540
-0.004991
-0.013382
-0.016561
-0.005801
0.021974
-0.000049
-0.026492
0.008816
-0.010681
0.043215
-0.010976
-0.013828
0.021579
0.011869
0.009941
0.026337
-0.004318
0.002669
0.016144
0.012475
0.027405
0.031502
0.038975
0.037882
0.041028
0.035848
0.035937
0.066169
0.106286
0.103306
0.087063
0.139579
0.109999
0.109934
0.122618
0.148404
0.170478
0.151231
0.134422
0.168319
0.150029
0.157211
0.118178
0.125047
0.125517
0.152145
0.133039
0.116334
0.093115
0.099154
0.096824
0.079397
0.076342
0.044435
0.039222
0.044984
0.047773
0.020087
0.036261
-0.005962
0.000615
0.003756
0.017615
-0.022006
-0.012389
-0.021893
-0.002059
-0.030093
-0.009662
-0.062699
-0.054476
-0.036112
-0.072517
-0.053218
-0.040178
-0.057643
-0.080286
-0.039030
-0.050827
-0.013890
0.026761
0.024850
0.061460
0.112862
0.129560
0.177944
0.241307
0.300149
0.344803
0.426552
0.455250
0.550113
0.608475
0.679781
0.731002
0.792074
0.869565
0.907044
0.927265
0.970622
0.980964
0.992383
1.017692
0.974978
0.934516
0.905501
0.880202
0.819624
0.773206
0.683243
0.633521
0.572221
0.499158
0.438520
0.365681
0.331782
0.245571
0.209128
0.167955
0.103195
0.081037
0.095967
0.112456
0.088789
0.085183
0.080265
0.119985
0.131391
0.160160
0.181471
0.231520
0.277609
0.322689
0.335073
0.401196
0.472233
0.476758
0.542391
0.581226
0.622170
0.617362
0.712085
0.693204
0.739392
0.757919
0.790260
0.769708
0.785069
0.777808
0.777281
0.766518
0.795429
0.769998
0.730176
0.705966
0.700445
0.686096
0.643967
0.634252
0.574685
0.570976
0.550007
0.540814
0.518027
0.480208
0.460603
0.447064
0.406991
0.382658
0.375434
0.374089
0.369239
0.331233
0.330960
0.342310
0.307168
0.300144
0.295078
0.290550
0.287615
0.282841
0.275457
0.265525
0.262564
0.266829
0.261322
0.254567
0.229313
0.233548
0.224924
0.233139
0.245186
0.212979
0.199473
0.189714
0.203159
0.188863
0.178818
0.180027
0.148435
0.158146
0.155789
0.139667
0.124030
0.109814
0.129151
0.127577
0.124249
0.098175
0.108421
0.137664
0.115308
0.084264
0.116741
0.083596
0.108127
0.075965
0.059870
0.067823
0.082161
0.065991
0.050906
0.071156
0.056458
0.059450
0.069806
0.022087
0.055497
0.011676
0.043369
0.020278
0.057934
0.020456
0.025148
0.023525
0.048615
0.011753
0.032498
0.052249
0.018267
0.042163
0.009362
0.015462
0.022518
0.010914
0.015289
0.006591
-0.000817
-0.018378
-0.012139
0.004476
0.009173
0.010731
0.021666
-0.011851
0.003452
0.016396
0.004042
-0.009954
-0.005157
-0.001823
0.031893
0.007568
