-0.047934
-0.013342
0.024514
-0.004201
0.017331
0.010312
0.033278
-0.008316
-0.012459
0.002036
0.002906
0.003646
0.044282
0.036597
0.030120
-0.006784
0.030346
0.063548
0.024574
0.069211
0.068369
0.075674
0.116589
0.093311
0.112581
0.138803
0.124195
0.123982
0.139956
0.138179
0.155572
0.151799
0.151425
0.171657
0.143506
0.143865
0.142650
0.130732
0.150146
0.124622
0.114536
0.099705
0.105959
0.085494
0.054443
0.079204
0.063616
0.036238
0.039033
0.027754
0.030137
0.020871
0.001304
0.023426
0.005795
0.019540
0.038728
0.012919
0.005571
0.002140
-0.027181
-0.050151
-0.021040
-0.055415
-0.041442
-0.065267
-0.046508
-0.057073
-0.034299
0.034200
0.086638
0.171827
0.254256
0.336069
0.452135
0.603085
0.713366
0.835611
0.912295
0.954821
0.955895
0.952251
0.875680
0.792819
0.670331
0.521168
0.388846
0.249709
0.132780
0.040502
-0.039329
-0.103003
-0.126207
-0.126598
-0.128336
-0.122040
-0.070923
-0.046139
-0.050658
-0.011561
0.016302
0.014764
0.040431
0.057819
0.069878
0.094217
0.055193
0.066854
0.110792
0.095494
0.093449
0.091311
0.125076
0.113134
0.101426
0.136920
0.149859
0.134040
0.138516
0.100034
0.168352
0.158366
0.155722
0.157688
0.201904
0.199407
0.181951
0.162328
0.171276
0.236303
0.213226
0.213169
0.232633
0.226170
0.220495
0.233041
0.229610
0.268771
0.228267
0.260250
0.240882
0.285432
0.256782
0.285872
0.290756
0.266600
0.303491
0.269231
0.282310
0.286320
0.286548
0.310025
0.288287
0.320922
0.293734
0.289912
0.285179
0.296729
0.282547
0.293225
0.302499
0.298682
0.305051
0.278146
0.294804
0.295023
0.306602
0.290984
0.285332
0.287175
0.273777
0.270292
0.266616
0.259249
0.255018
0.262608
0.238459
0.240951
0.234312
0.215443
0.245820
0.237093
0.209556
0.191642
0.219986
0.185417
0.181090
0.152039
0.196101
0.179562
0.204913
0.167404
0.187612
0.152144
0.125424
0.144988
0.160429
0.125797
0.130778
0.138587
0.127116
0.123565
0.093742
0.107443
0.113005
0.097196
0.087817
0.092531
0.090892
0.064528
0.042851
0.070549
0.074331
0.025590
0.048661
0.055103
0.034750
0.033091
0.044224
0.041946
0.018259
0.045337
0.029937
0.040582
0.065753
0.030477
0.049473
0.060171
0.037064
0.037919
0.050886
0.037844
0.006611
0.022222
0.043588
0.001639
0.003705
0.002992
0.012935
0.026722
0.007670
0.010673
-0.003240
0.010003
0.001251
0.002303
0.016313
0.019442
0.007811
0.011022
-0.005777
-0.007706
0.004963
0.001394
0.021441
-0.009178
0.015059
0.013583
-0.007773
-0.024101
0.007628
-0.001167
-0.007904
0.011353
-0.027166
-0.010292
0.013465
0.018619
0.007740
0.010728
-0.008214
0.014161
-0.004394
0.010198
-0.009625
-0.015796
0.014800
-0.021553
0.002672
0.009444
-0.002198
-0.000480
0.006626
0.018349
-0.000527
0.010296
0.027242
-0.011766
-0.010932
0.008566
-0.018012
-0.014776
-0.004008
-0.000540
0.011127
0.003219
0.018364
0.007350
0.000737
0.024934
0.014085
0.009471
0.007013
0.009221
0.001379
-0.000006
-0.000625
0.011211
0.011328
0.006905
0.010623
0.011105
0.009264
-0.013766
0.011329
-0.003872
0.019899
-0.008131
-0.010897
0.002914
0.009381
0.003492
0.014510
0.005523
-0.012882
-0.011432
-0.009778
-0.009274
-0.003045
-0.014531
-0.001582
-0.023992
-0.008107
0.013758
-0.029445
0.013964
-0.005560
-0.015505
0.010041
0.002757
-0.003834
0.001409
-0.012798
0.005376
0.020479
0.010215
-0.016220
-0.010319
0.033990
-0.013225
0.030137
0.008077
0.025634
-0.007490
0.001017
0.022584
0.016184
0.023538
-0.000190
0.019519
0.005476
-0.009234
-0.003894
-0.004376
-0.019744
0.005458
-0.007217
-0.016779
-0.009043
-0.007691
0.004528
0.001632
0.009147
0.009281
-0.000165
0.005346
0.026334
-0.001119
-0.023077
-0.011767
0.008536
-0.012895
0.000266
0.013507
0.002092
-0.024855
-0.004039
-0.002229
-0.033122
-0.004052
0.007955
-0.016182
0.009502
0.007811
-0.022050
-0.008206
0.014311
0.004213
-0.017238
0.003706
-0.004326
0.004573
0.000997
0.032949
-0.022989
-0.027829
0.013359
0.005434
-0.004577
-0.004092
-0.005498
0.007031
-0.011368
-0.014855
0.014303
0.006706
-0.000773
-0.000840
0.009471
0.024656
-0.000030
0.022145
0.007013
-0.001333
-0.010872
0.034956
-0.010420
-0.007046
0.010746
0.014083
-0.029669
0.009324
0.025941
-0.011981
-0.027206
0.005084
0.009654
0.021511
0.007890
0.008061
-0.015509
0.002843
0.001158
-0.001331
-0.001235
-0.002930
0.022389
0.015043
0.008790
-0.006659
0.015044
0.023676
0.005481
0.014635
0.009060
-0.017227
-0.011257
0.007115
-0.024601
-0.003114
-0.001741
-0.002257
0.006130
-0.002225
-0.006560
0.004082
-0.021005
-0.001979
-0.004248
0.014235
0.024556
0.000257
-0.008949
-0.015147
-0.001118
-0.023467
-0.016774
-0.008260
-0.020120
-0.014771
-0.011033
0.013979
0.031027
0.002372
0.024394
0.006413
-0.018539
0.025636
-0.000468
0.043788
-0.000679
0.013125
0.010906
0.021273
0.015991
0.035287
0.009637
0.065408
0.012743
0.043561
0.068756
0.105096
0.088981
0.102035
0.122488
0.104435
0.123648
0.140756
0.134616
0.140892
0.148524
0.152854
0.158213
0.153468
0.128070
0.129634
0.141288
0.139844
0.144064
0.111416
0.074588
0.088087
0.087984
0.078266
0.074221
0.031442
0.085608
0.032841
0.030695
0.038297
0.047472
0.036186
0.012306
0.017122
0.002769
-0.035962
0.002212
0.005712
-0.020914
-0.009118
-0.019513
-0.026416
-0.015242
-0.031527
-0.060764
-0.060960
-0.051365
-0.031071
-0.018729
0.025872
0.111581
0.138350
0.230471
0.360212
0.461299
0.599042
0.720226
0.818027
0.918696
0.933335
1.010514
0.914762
0.891624
0.794160
0.661075
0.495782
0.382899
0.245638
0.148539
0.034298
-0.048220
-0.108575
-0.137411
-0.149009
-0.139922
-0.131992
-0.109496
-0.070728
-0.068285
-0.017521
0.022464
0.041330
0.016929
0.035246
0.070608
0.091142
0.065136
0.063888
0.059220
0.117503
0.090098
0.117866
0.093383
0.112981
0.154089
0.102343
0.133084
0.164187
0.169861
0.142733
0.151803
0.178109
0.173752
0.197563
0.173302
0.192087
0.175032
0.184940
0.199519
0.193113
0.223053
0.228024
0.229270
0.206991
0.231563
0.222418
0.243242
0.271108
0.248289
0.254658
0.281348
0.232529
0.284521
0.246707
0.284394
0.280471
0.303626
0.275300
0.288331
0.277331
0.281270
0.318267
0.305354
0.307846
0.287277
0.304449
0.296525
0.312351
0.288562
0.300765
0.281655
0.304415
0.271164
0.264850
0.300895
0.297663
0.281409
0.281495
0.305412
0.242370
0.292426
0.301559
0.261787
0.274892
0.243267
0.275879
0.260111
0.257569
0.243212
0.243367
0.215389
0.202569
0.212891
0.245223
0.236825
0.204780
0.192861
0.199581
0.195421
0.195748
0.137738
0.170979
0.170349
0.158613
0.155121
0.161406
0.141028
0.115296
0.116805
0.127206
0.111920
0.097188
0.125709
0.089775
0.129976
0.083397
0.074372
0.098553
0.099746
0.072075
0.074640
0.089357
0.043608
0.053157
0.065942
0.070215
0.040019
0.048709
0.042545
0.020192
0.041359
0.038515
0.024229
0.059280
0.035242
0.015607
0.050043
0.041326
0.036611
0.047597
0.026476
0.027337
0.035556
-0.005784
-0.005396
-0.004955
0.031406
0.012764
-0.011268
0.039133
0.018386
-0.003767
-0.014410
0.000546
0.002913
0.017249
-0.012842
0.005923
0.017299
-0.017232
0.018130
0.015145
0.039172
-0.003482
-0.007508
0.001288
0.006320
0.019205
0.007364
0.013171
-0.014566
-0.006114
0.014838
0.003687
0.015771
0.012056
0.014745
0.003979
0.024698
0.003079
-0.012882
0.006617
-0.021533
0.014570
-0.028082
-0.010043
0.005011
0.019569
-0.010646
0.030706
-0.028066
-0.005781
-0.008274
-0.012771
0.003678
-0.001850
0.012628
-0.000501
0.004533
0.010345
-0.015096
0.022267
-0.014979
-0.020764
-0.003937
-0.025674
0.012596
-0.006643
-0.004698
-0.012216
-0.002551
-0.001740
0.005635
-0.003327
-0.005020
-0.004055
-0.022403
-0.002109
0.005559
-0.013124
0.015473
0.036487
-0.023528
-0.008919
0.022867
0.008095
0.002111
-0.011938
-0.012463
-0.009470
0.031172
-0.025183
0.005908
0.012675
0.011644
0.010706
0.026052
0.034926
0.018389
0.000901
0.000845
-0.006177
0.007059
-0.023719
0.003424
0.004512
0.002017
0.028051
0.001644
-0.010333
-0.003667
-0.017483
-0.010332
0.000135
0.021862
0.016953
0.035937
0.021153
0.007686
-0.009106
-0.002703
0.005341
0.049066
-0.011917
-0.001962
-0.005121
-0.011271
0.006307
0.002724
-0.020382
0.012267
-0.012115
0.021991
0.001652
0.003090
-0.003584
0.002769
-0.025984
-0.007547
0.019915
0.007721
0.016981
0.024022
0.017207
0.037382
-0.017867
-0.011029
0.019575
0.024675
-0.006892
-0.009437
0.001979
-0.026533
-0.001131
0.002161
0.023651
-0.003549
-0.011233
-0.012933
0.013392
0.027085
0.009602
-0.001956
0.006716
-0.003064
0.001363
0.012513
0.008364
0.001461
0.021784
-0.007983
-0.026854
0.005509
0.002304
-0.000139
0.013002
-0.001960
0.004940
0.018872
0.015412
-0.031665
0.027995
0.011482
0.006415
-0.012192
0.027430
-0.024205
-0.000372
-0.030765
-0.001275
0.022041
0.021154
-0.013248
0.011865
0.013112
0.006066
-0.009225
-0.004099
-0.027104
0.033340
0.046812
-0.012797
-0.002639
0.001817
0.000137
-0.016474
-0.002982
-0.003612
0.007030
-0.005034
-0.012450
-0.016892
0.025786
-0.010463
-0.021759
0.009591
0.017804
-0.003786
0.022651
0.003765
-0.024719
0.035171
-0.008080
0.004759
-0.016381
-0.020117
0.017809
-0.012864
0.007825
0.003445
0.006290
0.001405
0.007344
0.002969
0.011880
-0.013884
0.000727
-0.019063
0.011129
0.003275
-0.003683
-0.013240
0.024677
-0.015897
0.011382
0.024967
0.017980
0.013250
0.006292
0.019051
0.020691
0.013954
0.023607
0.000084
-0.010779
0.028663
0.020276
-0.004872
-0.006285
-0.005713
-0.006041
0.009615
0.033916
0.033548
0.039699
0.043217
0.080833
0.055938
0.059466
0.074322
0.058992
0.076932
0.099971
0.123207
0.089035
0.123349
0.123331
0.130112
0.121449
0.179281
0.139139
0.137754
0.173013
0.149384
0.147194
0.133605
0.163878
0.140263
0.101728
0.137360
0.099990
0.122799
0.101910
0.097546
0.081481
0.068503
0.049390
0.029795
0.002644
0.032851
0.041162
0.027754
0.027673
0.016099
0.010754
0.021700
0.009413
-0.021813
-0.024218
-0.018439
-0.005693
-0.003584
-0.033443
-0.026434
-0.043844
-0.054876
-0.063223
-0.053063
-0.019006
0.032714
0.068732
0.183787
0.270576
0.362429
0.470552
0.573840
0.718965
0.837526
0.901072
0.936150
0.982422
0.924611
0.885178
0.789869
0.686711
0.516087
0.367017
0.273194
0.131606
0.011626
-0.007286
-0.075337
-0.132139
-0.129459
-0.139161
-0.128735
-0.081935
-0.057751
-0.047169
-0.023341
-0.011720
0.034134
0.014541
0.047531
0.042845
0.065772
0.080549
0.102156
0.081248
0.108345
0.079205
0.094546
0.084295
0.119840
0.123875
0.148869
0.108088
0.151355
0.135159
0.152127
0.160858
0.167782
0.155554
0.173706
0.172700
0.173121
0.231978
0.180305
0.185487
0.216308
0.218757
0.240618
0.200496
0.236085
0.237839
0.231146
0.231779
0.253258
0.269926
0.267033
0.279243
0.244980
0.270986
0.273218
0.287980
0.290919
0.300343
0.294497
0.274759
0.301079
0.309954
0.272479
0.302668
0.286935
0.301457
0.281607
0.314945
0.314390
0.292253
0.309062
0.293368
0.306145
0.272002
0.263628
0.268921
0.236323
0.299441
0.292124
0.282224
0.283289
0.300709
0.242528
0.296310
0.254770
0.229169
0.217820
0.247349
0.238790
0.247107
0.255738
0.229075
0.236175
0.210481
0.184413
0.244605
0.201853
0.180579
0.191563
0.181733
0.197495
0.166485
0.155767
0.163319
0.150377
0.177359
0.171256
0.170953
0.143662
0.114039
0.154952
0.133746
0.086618
0.103223
0.078425
0.116071
0.101361
0.126870
0.120659
0.076890
0.075380
0.087701
0.081657
0.064578
0.056197
0.074966
0.030978
0.058081
0.042604
0.060469
0.053884
0.037660
0.046982
0.037959
0.051676
0.052891
0.023866
0.039749
0.037368
0.029288
-0.006725
0.027593
0.041473
0.031625
-0.010476
-0.011634
0.016707
0.023595
0.015960
0.004548
0.011184
0.009375
-0.001634
0.010018
0.014300
-0.021512
0.010629
0.004062
-0.007818
0.019511
0.024258
-0.009338
0.003528
0.020659
-0.012887
0.003702
0.017031
0.004279
-0.017693
0.010452
0.011838
0.013628
0.004717
0.019843
0.009826
0.002053
-0.000702
0.023410
-0.013906
0.023698
-0.003700
-0.000142
0.012845
-0.004178
0.021116
0.014423
0.012814
0.010967
-0.018635
0.011960
-0.026117
0.005659
-0.031527
0.008194
-0.007378
0.002848
0.005333
-0.017150
-0.022939
-0.031492
0.023876
0.045751
0.002193
0.016498
0.000913
0.014278
-0.012203
0.011196
0.014270
-0.019301
0.013666
-0.005060
0.000193
0.009683
-0.003854
-0.009009
0.009828
-0.010507
-0.033137
-0.011573
-0.019482
-0.013095
-0.007988
0.012123
-0.013387
-0.011447
-0.002415
-0.005703
-0.007567
-0.006810
0.002528
0.012963
-0.031736
-0.018713
0.001317
0.000399
-0.006461
-0.008168
0.006957
-0.013329
-0.028139
-0.011827
-0.009580
0.007327
0.005830
-0.029905
0.013971
0.008575
0.020657
0.002309
0.001315
0.022211
0.000182
0.017324
0.027138
-0.020326
0.021249
0.004807
-0.000711
0.008969
0.009945
0.011320
0.004413
-0.008648
0.017005
0.019490
0.053500
-0.025226
0.020370
-0.017490
0.000198
-0.000375
0.002422
-0.022257
0.014449
-0.003203
0.006363
0.025227
-0.016688
-0.023858
0.016148
-0.011129
0.009077
0.028783
0.003873
0.025151
0.013179
0.009866
-0.013563
-0.011138
0.005280
0.002730
-0.017772
-0.029664
-0.005532
-0.000006
-0.009335
-0.021309
-0.019380
0.015667
-0.029953
0.002788
0.005906
-0.011253
-0.033039
0.017581
-0.006930
0.033869
-0.009287
-0.003706
-0.000258
0.002930
0.004885
0.002801
0.018293
0.003708
-0.025288
0.026638
-0.018663
0.003744
-0.033095
-0.024799
0.020396
0.011930
0.010409
-0.003559
-0.007469
0.008602
-0.011007
0.016636
0.026554
0.003696
0.012412
-0.011235
0.024800
-0.000701
-0.022424
-0.021080
-0.011987
-0.026025
0.025445
-0.010199
-0.036008
0.025368
-0.009650
0.009772
-0.023756
-0.007043
0.014088
-0.020773
-0.005130
-0.000866
0.002583
-0.002228
0.025947
0.005252
-0.020111
-0.014826
-0.000771
-0.006795
0.002972
0.017810
0.001026
0.002082
-0.029469
-0.019427
-0.013898
0.005134
-0.009241
0.016539
-0.009022
-0.000988
0.007098
0.000227
0.022412
-0.035005
-0.000807
0.001235
-0.015646
-0.008928
0.010245
-0.006130
0.009316
0.010486
-0.001539
-0.003900
0.013059
-0.020330
0.004397
-0.022319
-0.003035
0.006056
0.011415
0.014965
0.000475
0.020509
-0.000716
0.001292
0.010760
0.024254
0.036266
0.029259
0.005444
0.022222
0.016334
0.044934
0.029306
0.045433
0.069424
0.036808
0.055029
0.052319
0.090972
0.096421
0.121539
0.108306
0.127966
0.139463
0.121106
0.140050
0.145888
0.128465
0.164182
0.164431
0.170294
0.121053
0.095408
0.138081
0.145169
0.127871
0.131042
0.114852
0.107981
0.085189
0.077438
0.092568
0.046653
0.048812
0.034717
0.038572
0.025295
0.020247
0.037722
0.055385
0.019088
0.002428
0.014455
0.010885
-0.018348
0.001559
-0.012467
-0.004882
-0.012316
-0.024412
-0.041012
-0.038432
-0.056352
-0.070966
-0.065342
0.009523
0.039982
0.089353
0.138970
0.235011
0.346301
0.459883
0.593179
0.710085
0.833936
0.917731
0.946849
0.945681
0.960626
0.856611
0.779080
0.644250
0.528030
0.389442
0.252380
0.139188
0.054971
-0.013601
-0.091548
-0.114868
-0.129622
-0.140839
-0.120582
-0.107765
-0.072844
-0.045594
0.020918
0.009397
0.029698
0.036733
0.062652
0.081163
0.090015
0.042931
0.089205
0.089701
0.086623
0.112022
0.096436
0.098817
0.073368
0.129108
0.125028
0.141260
0.159531
0.132961
0.141905
0.151164
0.161310
0.128910
0.184044
0.170671
0.190932
0.193683
0.196884
0.210264
0.208034
0.234375
0.197122
0.257703
0.219129
0.228408
0.257062
0.222997
0.268807
0.268233
0.238903
0.267576
0.264067
0.281212
0.275906
0.284728
0.281647
0.288909
0.281552
0.269074
0.289787
0.300222
0.313562
0.315526
0.300164
0.316516
0.296237
0.313221
0.308494
0.279767
0.308162
0.308066
0.305404
0.294265
0.285997
0.270845
0.303224
0.282255
0.294762
0.288552
0.278914
0.295880
0.307782
0.263257
0.269678
0.241562
0.250131
0.234843
0.244010
0.224030
0.240117
0.258228
0.229318
0.210565
0.217251
0.191644
0.194773
0.223946
0.218048
0.184940
0.180506
0.187817
0.168598
0.179824
0.131445
0.152479
0.134335
0.128146
0.139879
0.148148
0.134694
0.117382
0.114894
0.115627
0.081483
0.094471
0.070492
0.102028
0.086133
0.096136
0.083537
0.045952
0.076814
0.070287
0.067494
0.053923
0.068366
0.067755
0.060958
0.061500
0.052425
0.046446
0.030857
0.057129
0.054806
0.038608
0.047024
0.015541
0.033417
0.019305
0.019888
0.022069
0.013593
-0.007590
0.006025
0.014766
0.023369
0.027659
0.009461
0.003125
0.023291
0.019370
-0.005056
0.007918
0.006366
0.021133
0.038455
0.036121
0.000087
0.023914
-0.007951
-0.020022
-0.026802
0.012502
0.005362
0.018639
0.011185
-0.000707
0.024034
-0.003868
0.031617
0.014695
0.009675
-0.003395
-0.014715
0.034630
0.019711
-0.013409
0.011669
-0.022536
0.007709
0.005653
0.000285
-0.001983
-0.008267
-0.007432
0.002039
0.028605
0.012156
0.021449
0.001639
-0.006571
0.023410
0.029272
0.024964
-0.010993
-0.014003
-0.005269
-0.001032
0.030749
-0.002278
-0.022597
-0.000541
0.003241
-0.009639
-0.010026
0.051973
-0.020620
0.017975
0.021493
-0.011336
-0.050784
-0.005945
0.006331
-0.012933
-0.024405
-0.008276
0.002448
-0.030451
0.007548
0.008789
0.005166
0.008351
0.000178
-0.002671
0.027786
-0.022250
0.007984
-0.001832
-0.029153
0.032027
-0.009325
-0.005059
-0.009660
0.002070
-0.033892
0.003901
-0.006048
-0.007804
0.007288
0.012745
0.005343
0.003007
-0.024246
-0.001631
-0.002152
0.001264
0.000090
-0.020684
0.005127
0.011727
0.012111
-0.007383
-0.003145
0.002526
-0.008128
0.035620
0.029037
-0.031002
0.010375
-0.017615
0.007794
-0.001733
0.006203
0.015977
-0.007315
-0.002590
0.010451
0.001484
-0.005890
0.005198
0.014480
0.008228
0.002182
-0.020366
0.007166
0.013529
0.011774
0.001658
0.011222
0.009939
0.014948
0.008293
-0.011935
0.000683
0.034102
-0.004840
0.011994
0.003320
0.033776
-0.016045
0.007317
-0.013541
-0.013277
0.002054
-0.001526
-0.011470
-0.003647
0.022871
0.012365
0.017962
-0.010089
-0.015280
0.005055
-0.019910
0.011430
-0.011113
0.019163
0.005524
0.001058
0.031145
0.026045
-0.002785
-0.016200
0.008918
-0.017118
-0.003397
-0.012641
0.005009
-0.000917
0.003528
-0.013808
-0.006292
-0.013060
0.010809
0.001821
0.003148
0.013966
0.010648
0.009832
0.005870
0.032917
-0.005200
0.002447
0.024675
-0.001506
0.004513
0.025905
-0.007366
0.016398
-0.000855
0.007072
-0.015745
-0.014502
0.003816
-0.008223
0.006043
-0.017581
-0.002835
-0.021862
-0.009484
0.026571
0.011145
0.020134
-0.004587
0.016707
-0.012611
0.005556
-0.013430
0.009113
-0.018604
0.023969
0.010006
-0.009045
-0.015457
-0.002289
0.011830
0.014054
-0.028345
0.005876
-0.030855
0.001924
0.031248
-0.034535
0.006010
0.002445
0.020827
0.013184
-0.004373
-0.019100
-0.017433
-0.000130
-0.004052
-0.008045
0.015859
0.017308
-0.013735
-0.004132
-0.004170
-0.016148
0.024117
0.000008
-0.032455
0.011212
0.008726
-0.005938
-0.017654
-0.018639
0.002295
-0.001766
0.024529
0.028728
0.016798
0.042145
0.034378
0.039212
0.039535
0.000779
0.063521
0.048594
0.064775
0.102360
0.085703
0.102057
0.100352
0.108420
0.120544
0.131157
0.108985
0.169535
0.143723
0.141779
0.132880
0.139208
0.128725
0.155920
0.133298
0.142510
0.128832
0.131989
0.119323
0.115428
0.094684
0.094406
0.108329
0.095246
0.059341
0.057691
0.067644
0.036237
0.035080
0.048480
0.041503
0.039582
0.031199
-0.016159
0.007515
0.004387
0.021491
-0.008461
0.000827
0.007330
-0.021065
-0.017627
-0.033414
-0.042140
-0.066029
-0.055636
-0.026119
0.009915
0.048396
0.090990
0.157664
0.228826
0.341172
0.451100
0.605420
0.729131
0.788220
0.889506
0.974805
0.950479
0.928957
0.870301
0.787964
0.648541
0.509014
0.384605
0.246770
0.140049
0.006246
-0.029338
-0.083978
-0.133969
-0.143211
-0.128339
-0.111462
-0.096965
-0.051106
-0.033337
-0.006529
0.032027
0.032997
0.047682
0.054867
0.060076
0.072820
0.096031
0.065551
0.107223
0.076792
0.077282
0.107065
0.109660
0.124169
0.111626
0.143386
0.138881
0.124192
0.159952
0.140856
0.146162
0.152170
0.152986
0.165293
0.156336
0.204126
0.207674
0.201750
0.176617
0.208204
0.231637
0.245852
0.226384
0.220515
0.259625
0.237773
0.224400
0.250338
0.246224
0.247454
0.259157
0.244327
0.264357
0.273443
0.268959
0.293444
0.307213
0.287843
0.273705
0.291908
0.268096
0.301316
0.306530
0.311617
0.302453
0.315299
0.302600
0.306785
0.279534
0.278009
0.315620
0.297449
0.265620
0.297822
0.282257
0.303553
0.305416
0.307729
0.300509
0.288329
0.282301
0.260587
0.260767
0.265938
0.274635
0.247254
0.262012
0.233188
0.223633
0.242150
0.218625
0.215601
0.221593
0.223352
0.211362
0.197953
0.172165
0.188268
0.175755
0.179485
0.175141
0.159523
0.155003
0.166307
0.173608
0.123440
0.140598
0.149371
0.092221
0.102513
0.140453
0.114394
0.120659
0.107293
0.109222
0.094074
0.103064
0.090695
0.092899
0.095198
0.088250
0.052988
0.086231
0.036471
0.050158
0.078351
0.081365
0.055131
0.033596
0.058406
0.018251
0.032800
0.025361
0.047850
0.033824
0.042291
0.033616
0.022546
0.031936
0.031657
0.040338
0.028404
-0.005802
0.027542
0.041270
0.012568
0.003773
0.009624
0.001617
0.008312
0.016856
0.013926
0.004546
0.000096
0.010382
0.006040
0.014425
0.040751
0.005294
0.015557
0.023551
-0.001497
0.006665
-0.013658
0.000855
0.008695
0.038825
0.009672
0.026876
-0.006431
-0.002251
0.007815
0.029322
-0.004055
0.023974
0.013323
-0.002911
0.019856
0.019327
0.026870
0.000799
-0.009659
-0.000270
-0.022510
0.018773
0.010001
0.013502
-0.009851
0.011454
-0.004226
0.006064
-0.002134
0.010243
-0.013952
-0.028392
0.001147
0.003701
0.012259
0.001186
-0.003645
-0.012195
-0.013481
-0.006818
-0.009402
0.004264
-0.005841
-0.006448
-0.014164
0.008840
0.016050
0.005599
0.007982
0.017771
-0.009928
-0.020410
0.029151
-0.001363
0.014791
0.026563
0.003369
0.021633
-0.003659
0.010736
-0.006854
-0.002876
-0.007833
-0.012509
0.004144
0.013945
0.021971
-0.005890
-0.005332
0.017521
-0.019887
-0.009620
0.028589
0.007018
0.019525
-0.025854
0.020049
-0.025299
0.009548
0.025014
0.003118
-0.013616
-0.029506
-0.028618
0.000359
0.002019
-0.017601
-0.000473
0.017248
0.023886
-0.006583
0.004038
0.001359
-0.008383
0.019839
-0.021349
-0.009314
0.004070
0.022507
-0.012835
0.005302
-0.013600
0.014198
-0.026160
0.009004
0.013638
-0.009248
0.011710
-0.011019
-0.004784
0.000455
-0.002999
-0.005311
-0.014205
0.004382
0.017883
0.016180
-0.006549
-0.031404
0.018435
0.000867
0.008394
0.009173
0.023901
0.014812
0.005749
0.011757
0.015342
0.006287
-0.001657
0.011613
0.022458
-0.013091
-0.012766
0.003445
0.011904
0.026009
0.023245
-0.000395
0.006343
-0.028291
0.018505
0.023921
-0.013074
0.008568
0.020612
0.006083
-0.020883
0.000510
-0.007543
-0.007507
0.002717
-0.015837
-0.006483
-0.008413
0.013878
0.008655
-0.008947
0.005109
-0.023120
-0.010563
0.010385
-0.011140
0.000504
-0.021175
0.014235
0.003987
-0.018900
0.015286
0.000519
-0.000604
-0.018278
0.014333
0.017129
0.005818
-0.004333
0.024813
0.001961
0.001424
-0.019541
0.000594
0.004155
-0.004752
0.035339
-0.003462
-0.009912
-0.011363
-0.007380
0.001875
0.001983
0.011433
0.005183
0.000644
-0.006060
-0.011282
0.009132
0.014849
-0.013442
-0.026691
0.025912
0.012255
-0.005983
-0.014431
0.005781
-0.001751
-0.008451
-0.003355
0.003191
-0.021769
0.010206
-0.008772
0.005061
-0.008400
0.004366
0.011460
-0.011373
0.009779
0.012923
0.003429
-0.006284
0.000599
-0.014631
0.017635
0.020529
-0.006926
-0.020121
-0.000863
-0.003696
-0.006130
-0.002754
-0.031519
-0.014687
0.006038
0.025024
0.025948
0.016691
-0.016852
0.039416
0.016917
0.016405
0.040015
0.029988
0.057719
0.030298
0.041749
0.064385
0.043667
0.068324
0.066257
0.107296
0.099956
0.133835
0.096014
0.124359
0.154154
0.168478
0.168182
0.144008
0.151908
0.156663
0.137000
0.118457
0.127106
0.106763
0.137396
0.105988
0.121811
0.118108
0.075449
0.090101
0.066808
0.073906
0.060132
0.033905
0.052299
0.057348
0.045084
0.027492
0.027591
0.036073
-0.015280
0.027994
0.044528
0.004556
0.006762
-0.013889
0.007677
-0.026526
-0.038410
-0.019598
-0.031668
-0.052565
-0.034240
-0.030522
-0.040966
-0.000600
0.047302
0.091172
0.125399
0.269046
0.336384
0.470558
0.605755
0.693760
0.871044
0.910241
0.959411
0.966273
0.924743
0.885323
0.773181
0.646224
0.546783
0.371297
0.237406
0.117847
0.016451
-0.060240
-0.091201
-0.086579
-0.127090
-0.131465
-0.119930
-0.076107
-0.070018
-0.038289
0.021334
-0.007817
0.020676
0.045609
0.048714
0.065790
0.080085
0.101863
0.106652
0.094522
0.088964
0.101037
0.101424
0.138618
0.108356
0.101988
0.150618
0.132395
0.130416
0.138604
0.142898
0.162847
0.158731
0.172536
0.166523
0.180334
0.179140
0.192546
0.170710
0.184992
0.198764
0.204361
0.224579
0.221673
0.217321
0.224855
0.249728
0.226917
0.243749
0.256496
0.236777
0.251582
0.251120
0.260274
0.271594
0.285888
0.292947
0.291614
0.273490
0.263814
0.274305
0.269111
0.291077
0.272860
0.302087
0.299778
0.303804
0.289889
0.321562
0.306709
0.301708
0.285161
0.292178
0.317629
0.292189
0.291770
0.286640
0.287224
0.277308
0.281973
0.283216
0.289739
0.259776
0.267583
0.254730
0.255797
0.239117
0.222692
0.235177
0.258985
0.241116
0.232820
0.212254
0.207199
0.218500
0.215587
0.178405
0.212261
0.186049
0.167338
0.186434
0.183275
0.180171
0.151312
0.153591
0.165165
0.132827
0.135516
0.115063
0.167093
0.128394
0.119510
0.113524
0.091222
0.118678
0.087027
0.091567
0.104258
0.092708
0.083357
0.080299
0.076690
0.101063
0.082649
0.050762
0.051478
0.064810
0.061902
0.064804
0.045563
0.040115
0.031910
0.041762
0.048519
0.039268
0.034496
0.027688
0.008439
0.011328
0.037189
0.035077
0.014948
0.015474
0.021375
0.027513
0.010586
0.034534
0.013582
0.024592
0.040130
-0.008471
0.002916
0.005140
0.024234
0.021972
0.004560
0.010937
0.001248
-0.000852
0.002313
-0.009987
0.005784
0.008697
0.023662
-0.002168
0.021278
-0.020408
-0.019345
0.021611
-0.013105
-0.000552
0.001273
0.008867
-0.003803
0.013521
-0.003612
-0.025887
0.003640
0.027959
0.000283
0.021228
0.036848
0.018109
-0.000611
-0.007393
0.017862
-0.016746
-0.004279
0.017099
-0.034014
0.028373
0.007649
-0.006345
0.015806
-0.000190
0.021565
-0.002419
-0.032457
-0.012671
-0.022142
-0.007845
0.021009
-0.017884
-0.006757
-0.003567
0.010020
0.029970
0.000353
-0.010708
-0.014370
0.005904
-0.020668
-0.011639
0.000466
-0.010837
0.009706
-0.016835
-0.010324
-0.009709
0.010704
-0.016680
0.013015
-0.025762
0.021378
0.006383
-0.016007
0.007749
0.013554
0.004391
-0.020053
-0.032933
-0.016943
0.002158
-0.012782
-0.002319
0.010454
-0.002097
0.008241
-0.006192
-0.009224
-0.011811
0.034767
0.002589
-0.028026
-0.009697
0.015290
0.002623
-0.028466
0.018765
0.006000
-0.017602
-0.021390
-0.014660
0.004427
-0.009337
0.034078
0.002230
-0.014274
0.003680
-0.012110
0.015622
0.005843
-0.006065
-0.007545
-0.038842
-0.005843
-0.023054
0.020590
0.012967
-0.026832
-0.010851
0.008279
-0.007144
0.006564
-0.011751
-0.003274
0.012823
0.003028
0.011238
0.046396
-0.016078
-0.002136
-0.002804
0.029324
-0.002858
-0.011239
0.013794
-0.004647
-0.014948
-0.000704
0.033940
0.000850
-0.017052
0.008692
0.006492
-0.008116
0.008691
-0.006115
-0.008563
-0.021747
-0.002514
0.008805
0.012055
0.011174
0.004526
0.000826
-0.002925
-0.005999
0.014487
0.002303
-0.000104
0.004132
-0.005984
0.022003
-0.002838
-0.009990
0.024075
-0.008127
0.011320
0.012819
-0.006696
0.012740
-0.019485
0.021701
-0.033471
-0.001457
0.008450
0.009711
-0.000010
-0.003952
-0.014670
-0.000586
0.015683
0.004850
0.044101
0.019670
0.008920
-0.011989
0.003382
-0.018859
0.030686
-0.012168
0.016666
-0.010839
-0.005499
0.005792
-0.013144
0.003325
0.022537
0.008344
0.016159
0.021022
-0.007687
0.007039
0.027207
-0.004897
0.005463
-0.017511
0.003253
0.009393
0.030113
0.011875
0.000199
-0.015508
-0.017670
-0.000626
-0.004027
0.031842
0.027497
-0.013881
-0.032636
0.022160
-0.031878
-0.020344
-0.014076
0.001264
0.003896
0.005086
0.013473
0.001863
-0.018150
-0.001428
-0.019185
-0.018139
-0.002185
-0.001412
0.043574
0.017751
0.000053
-0.021835
0.002093
0.010883
-0.008158
-0.026060
0.038865
-0.017553
-0.013935
0.022978
0.020050
0.010437
0.011276
0.028602
0.032287
0.013165
0.028312
0.027081
0.039057
0.035013
0.060434
0.047396
0.079747
0.071171
0.077182
0.078431
0.104378
0.127534
0.124256
0.123839
0.123621
0.140841
0.135799
0.164893
0.160493
0.145510
0.127517
0.142936
0.126815
0.126061
0.146484
0.114844
0.138162
0.109544
0.101725
0.108325
0.104145
0.054502
0.069402
0.020642
0.029650
0.033812
0.030279
0.016610
0.017625
0.061285
0.032350
-0.024937
0.028373
-0.001281
-0.013898
0.019006
0.012788
0.020185
-0.013540
-0.035486
-0.046611
-0.079601
-0.075537
-0.046936
-0.037576
-0.007465
0.032185
0.093250
0.172631
0.276846
0.352198
0.488507
0.596073
0.718148
0.806345
0.924888
0.945431
0.963763
0.948445
0.877491
0.774238
0.684046
0.533700
0.382588
0.244601
0.122816
0.034978
-0.020323
-0.073347
-0.155203
-0.154562
-0.141957
-0.118879
-0.077895
-0.091901
-0.032570
-0.020840
-0.005823
0.009809
0.060998
0.033887
0.066221
0.080533
0.063744
0.054146
0.090073
0.096636
0.091569
0.084732
0.114648
0.105604
0.112295
0.148981
0.125300
0.147787
0.137217
0.131550
0.150234
0.125819
0.172175
0.133500
0.169879
0.194579
0.205236
0.180879
0.205912
0.197035
0.199267
0.188685
0.206181
0.221520
0.234747
0.222484
0.220219
0.235375
0.263076
0.275770
0.274761
0.284697
0.284436
0.250362
0.277726
0.266014
0.280794
0.305545
0.268351
0.294227
0.269400
0.311813
0.292635
0.301759
0.283115
0.304698
0.284259
0.291626
0.275140
0.302861
0.300565
0.288029
0.305451
0.320162
0.295470
0.271027
0.315209
0.285390
0.283824
0.299635
0.270653
0.276141
0.262853
0.245633
0.251130
0.281924
0.240008
0.241608
0.224157
0.230958
0.244128
0.229799
0.204139
0.233575
0.189959
0.221649
0.218553
0.197648
0.188364
0.212433
0.167001
0.166412
0.168291
0.177630
0.171294
0.141175
0.137338
0.133726
0.142984
0.122537
0.124162
0.119356
0.114512
0.082909
0.094703
0.095409
0.092708
0.082015
0.090903
0.063341
0.094419
0.080963
0.086351
0.056705
0.056266
0.069273
0.063494
0.039921
0.029379
0.037728
0.016703
0.039751
0.034434
0.020239
0.002639
0.020630
0.019460
0.041924
0.029658
0.027116
-0.002437
-0.001606
0.023157
-0.011246
0.021027
0.007371
-0.002791
0.004031
0.025002
0.005912
0.004175
0.012792
-0.006632
0.012417
0.008599
0.003408
-0.001741
0.002519
-0.010849
0.035543
0.008508
-0.010285
0.000060
0.007311
-0.007539
-0.015534
-0.004663
0.020550
-0.003886
0.005926
0.020017
-0.018242
-0.012221
0.004550
0.009915
0.013991
0.017532
0.021343
-0.005102
-0.012172
0.030090
0.009114
-0.010861
-0.020131
-0.010057
0.005330
-0.008500
-0.006474
-0.003105
0.001424
-0.000788
0.014812
-0.007035
-0.006432
0.018404
0.015168
0.000519
-0.009054
-0.000995
-0.010806
-0.000272
0.007923
0.003959
0.006518
0.013500
-0.021096
0.029545
-0.008115
0.002133
-0.007376
0.012485
0.014225
-0.000551
0.006506
-0.016706
0.002781
0.006680
0.004094
0.000369
-0.008449
0.014909
0.017707
0.005460
0.008300
-0.015262
0.014191
0.007698
0.024268
-0.043490
-0.012625
-0.009795
0.015987
-0.019305
0.013997
0.017785
0.010970
0.003777
-0.008034
-0.007125
-0.004567
-0.001499
0.008547
-0.015027
-0.010582
-0.016213
-0.027653
-0.011583
-0.022429
0.013146
0.010171
-0.014849
0.000861
-0.006797
0.036606
-0.008982
0.000621
0.015643
0.012142
-0.007472
-0.011365
-0.000577
-0.014767
0.018353
0.013635
-0.019101
-0.013286
-0.000714
-0.020419
0.021570
-0.022216
-0.009834
0.008991
-0.024021
0.005651
-0.017531
0.018509
0.008205
0.009822
-0.020863
0.004000
0.014503
-0.005425
0.004875
0.026124
-0.005060
-0.017062
-0.008316
-0.000101
-0.007672
0.004133
-0.023618
0.025229
-0.014460
-0.034666
0.037456
-0.023014
0.003218
-0.012128
0.000490
-0.008622
-0.021028
-0.010560
0.007049
-0.008268
0.014334
0.001503
0.019824
-0.008519
0.035246
0.007906
0.019203
-0.016600
-0.006447
-0.018545
0.002683
0.014412
0.013537
-0.002437
-0.001392
-0.011427
-0.008848
-0.006807
0.004680
-0.006524
0.008951
-0.013584
-0.013973
0.007598
0.002456
-0.032743
-0.033382
-0.008343
0.003145
-0.026523
-0.005437
-0.007462
-0.015394
-0.018600
-0.006580
0.004220
0.024271
-0.008721
0.015595
0.015474
-0.006887
-0.002720
-0.032121
0.014905
0.003216
0.009851
0.011505
-0.007250
0.003012
-0.004819
-0.014641
-0.024695
0.002758
0.008693
-0.007509
-0.010315
-0.001262
0.004509
0.004190
0.005600
-0.026441
-0.014388
0.009523
0.022499
-0.011382
-0.002846
0.016645
-0.012115
0.016385
0.005885
0.032206
0.004674
0.021561
0.056952
0.023672
-0.011037
-0.023505
0.008011
0.027809
0.013956
-0.021620
0.004470
-0.019437
0.011594
-0.008585
0.015731
0.006071
0.004302
-0.022071
0.007774
0.002729
0.004618
-0.004438
-0.004917
0.010971
0.016161
-0.004895
0.031635
0.016964
0.019146
0.029070
0.044038
0.021437
0.059931
0.015698
0.078553
0.059922
0.056661
0.082451
0.101132
0.108116
0.112526
0.133829
0.103043
0.142923
0.154186
0.139778
0.142800
0.169370
0.158892
0.135911
0.131302
0.147086
0.151373
0.105986
0.118708
0.091532
0.099514
0.100380
0.079337
0.079576
0.068666
0.036606
0.028461
0.075928
0.027378
0.043453
0.021505
0.051746
0.014731
0.027470
-0.005512
0.001794
-0.026416
0.002567
-0.019974
-0.030639
0.007712
-0.036949
-0.043422
-0.039168
-0.063298
-0.060859
-0.048656
0.006816
0.014915
0.066601
0.158428
0.220060
0.356656
0.465084
0.611350
0.727718
0.862911
0.894721
0.943673
0.986872
0.929629
0.879779
0.766114
0.655290
0.539489
0.356522
0.281130
0.136502
0.010991
-0.040967
-0.108140
-0.143546
-0.129388
-0.144986
-0.139081
-0.104427
-0.066693
-0.031288
-0.031957
0.008665
0.035362
0.013677
0.029427
0.038622
0.065770
0.092049
0.117033
0.074890
0.087750
0.118051
0.101221
0.096607
0.139762
0.130777
0.134748
0.130794
0.146221
0.150211
0.169003
0.157282
0.157853
0.159099
0.162948
0.192560
0.167750
0.207744
0.173328
0.172886
0.197115
0.179137
0.197166
0.214943
0.217125
0.258523
0.242048
0.248531
0.238948
0.237920
0.221080
0.274893
0.278853
0.289266
0.275446
0.304118
0.269954
0.261567
0.274363
0.269468
0.286733
0.260896
0.288250
0.308649
0.325756
0.317332
0.271799
0.302616
0.329243
0.280462
0.334000
0.283883
0.265088
0.291443
0.291645
0.304200
0.293209
0.285580
0.270163
0.281054
0.292115
0.293960
0.269128
0.259276
0.285505
0.258270
0.250343
0.255787
0.247023
0.265492
0.233317
0.254000
0.239840
0.241570
0.204519
0.220536
0.195399
0.184454
0.187910
0.188959
0.176596
0.177780
0.168955
0.176662
0.157958
0.124182
0.148765
0.148662
0.124178
0.114846
0.102964
0.135639
0.108754
0.131126
0.110712
0.106391
0.102821
0.101248
0.110342
0.082106
0.064163
0.065378
0.069897
0.079974
0.028114
0.079752
0.065200
0.039989
0.041394
0.047022
0.077612
0.047598
0.027475
0.024926
0.054590
0.039116
0.005343
0.039595
0.018245
0.027113
-0.008509
0.041799
0.017913
0.015640
0.022992
0.011399
-0.003366
-0.016669
0.004891
0.049250
0.008840
-0.010403
0.024391
0.004266
0.017922
0.025052
0.009302
0.004124
0.000127
0.003892
-0.010162
-0.025351
0.000968
-0.002868
0.014996
0.035732
-0.008878
-0.010918
-0.017313
0.005768
-0.009382
-0.005541
0.010510
0.012875
-0.009569
0.015750
0.029148
0.005157
0.010075
0.023139
-0.001091
0.008427
-0.008733
-0.012068
-0.002303
-0.014414
-0.002060
-0.011993
-0.017833
-0.009568
0.007105
0.004625
0.033972
-0.000141
-0.006295
0.015253
-0.002746
-0.012299
0.018540
0.001265
-0.000100
0.018718
-0.000955
-0.021165
-0.016929
0.028169
-0.012478
-0.011304
0.029444
0.042539
-0.013593
-0.011423
0.007763
-0.000146
0.020630
-0.001799
0.002258
0.005038
-0.005659
-0.003617
0.000272
-0.002422
-0.024125
0.008812
0.003555
0.004975
-0.004177
0.014660
-0.017633
0.012488
-0.004453
-0.008577
0.020073
0.024988
0.030892
0.017390
-0.017224
0.004326
0.003522
0.000374
0.003813
-0.015500
0.048607
-0.022402
0.003169
-0.001345
-0.027303
-0.012365
-0.036349
-0.000616
0.025193
0.009710
0.010480
0.010196
-0.004127
0.029127
-0.001471
0.009992
-0.011336
0.001778
-0.022540
-0.014320
-0.000169
-0.028117
-0.000285
0.014818
-0.004683
0.008951
0.014421
-0.004920
-0.004598
0.021637
0.021601
0.000808
0.012584
-0.010275
-0.032291
-0.007088
0.024812
0.002728
0.020996
0.000389
0.006941
0.002134
0.007957
-0.012735
-0.018000
0.037068
0.020199
0.015369
-0.016999
-0.008958
0.009286
-0.013512
0.023879
0.000028
0.005443
0.014136
-0.010257
-0.009668
-0.015424
0.004534
-0.014181
-0.010681
-0.006740
0.023835
0.010413
0.011316
-0.005687
-0.010501
0.001963
-0.006750
0.001001
-0.002930
-0.005998
-0.004967
0.010958
-0.007577
-0.002915
-0.025579
0.018115
0.004197
0.000494
0.007343
0.011930
0.011508
-0.003698
0.006004
0.009305
-0.010775
0.036972
0.004732
0.002676
0.015266
-0.001636
0.007869
0.007200
-0.003830
-0.000524
0.001311
0.022851
-0.005730
0.023837
-0.013127
-0.006197
0.015224
0.014383
0.022620
0.007032
-0.010377
0.035596
0.017554
0.008483
-0.000700
-0.029651
-0.008678
-0.003909
0.012875
-0.018566
-0.004433
-0.006242
0.018556
0.014282
-0.008452
-0.004545
0.024257
-0.013765
0.010408
-0.009681
-0.004912
0.006595
0.012875
0.011829
-0.021670
0.027045
0.015902
0.006521
0.018992
-0.040797
-0.010461
0.001137
0.017107
-0.011770
-0.015735
-0.017470
-0.001393
-0.013490
-0.009439
-0.002517
-0.008184
0.011940
-0.010583
-0.013604
0.014000
0.017901
0.007405
-0.004258
0.013576
0.013996
-0.008626
0.005713
0.000509
0.001832
0.024527
0.034388
0.047574
0.018402
0.053496
0.060430
0.057773
0.059014
0.072799
0.104817
0.101702
0.068831
0.122586
0.106699
0.114319
0.140904
0.155122
0.142725
0.147708
0.161851
0.137803
0.177220
0.153073
0.129508
0.121553
0.133510
0.095806
0.105959
0.121952
0.106854
0.063624
0.080727
0.087909
0.084802
0.032719
0.028506
0.040137
0.059709
0.035595
0.035133
0.005732
-0.009352
0.017073
0.030313
-0.001180
-0.009769
-0.019553
-0.024542
-0.023705
-0.054787
-0.046236
-0.025514
-0.014543
-0.048738
-0.073259
-0.022038
-0.009976
0.002924
0.074237
0.155523
0.229313
0.355648
0.489554
0.600298
0.693781
0.824339
0.908073
0.958934
0.994873
0.929027
0.898419
0.782898
0.706009
0.540402
0.366445
0.259767
0.135242
0.029361
-0.041647
-0.124351
-0.109135
-0.145574
-0.132973
-0.107489
-0.066282
-0.071477
-0.041503
-0.030935
-0.014300
0.029270
0.049797
0.039602
0.057292
0.058632
0.097915
0.084539
0.081712
0.098705
0.073685
0.099422
0.100602
0.090509
0.112672
0.137494
0.132837
0.119559
0.131624
0.157426
0.146942
0.158137
0.152759
0.162021
0.190797
0.184660
0.173351
0.188763
0.174583
0.168820
0.200772
0.226841
0.212293
0.203670
0.227316
0.238927
0.211369
0.265572
0.233524
0.251579
0.262812
0.249698
0.264693
0.269689
0.282578
0.242454
0.276130
0.295832
0.301169
0.318861
0.292352
0.281667
0.281948
0.321427
0.298200
0.310902
0.298071
0.321826
0.275063
0.309253
0.315526
0.312457
0.306128
0.286542
0.295995
0.293938
0.266654
0.293907
0.279187
0.280696
0.260931
0.262878
0.279198
0.244411
0.247774
0.281096
0.267875
0.224149
0.244767
0.243113
0.263623
0.232125
0.236091
0.209963
0.225437
0.193120
0.196946
0.179377
0.182131
0.170808
0.175546
0.183897
0.148439
0.173758
0.135791
0.152996
0.140076
0.126031
0.155976
0.147959
0.118679
0.147961
0.119605
0.140371
0.115566
0.095338
0.079007
0.090172
0.070828
0.073022
0.064306
0.085024
0.062277
0.067165
0.066388
0.065276
0.046579
0.065413
0.038504
0.026216
0.022646
0.004674
0.057822
0.048637
0.013733
0.032075
0.016059
0.016652
0.010134
-0.011690
0.027761
0.024971
0.016705
0.022312
0.004337
0.024681
0.009305
-0.013735
0.023111
-0.014939
-0.013499
0.020099
0.003698
0.006761
0.016838
0.022439
0.010704
0.007008
0.001386
0.004181
-0.004425
-0.002517
0.020877
0.008603
-0.002880
0.018985
