0.009671
-0.008941
0.014231
0.009111
-0.017438
0.007260
0.002402
-0.004418
0.027585
-0.001737
-0.006607
0.030149
0.035496
0.024622
0.035994
0.039974
0.036211
0.061496
0.066437
0.072930
0.073908
0.073440
0.110639
0.080544
0.120051
0.125715
0.133720
0.149269
0.151681
0.139632
0.145895
0.147117
0.128821
0.133158
0.138688
0.148781
0.141792
0.138489
0.110716
0.111666
0.105937
0.095622
0.110912
0.079220
0.082865
0.073443
0.045886
0.053073
0.037297
0.032462
0.048784
0.013225
0.019911
0.012158
0.007520
-0.015811
0.011198
0.008880
-0.047724
-0.013683
-0.037506
-0.030958
-0.005007
-0.045240
-0.046982
-0.027104
-0.046755
-0.055013
-0.060843
0.006605
-0.002053
-0.009825
0.030926
0.068466
0.105451
0.162653
0.190867
0.226094
0.292423
0.370752
0.436504
0.549000
0.620459
0.696973
0.784061
0.812795
0.871724
0.903852
0.956136
0.961275
0.971871
0.947292
0.973404
0.925191
0.898436
0.832698
0.759813
0.672954
0.597891
0.517756
0.454480
0.335982
0.287830
0.238961
0.143512
0.127178
0.065375
0.058216
0.047734
0.019673
0.029763
0.039914
0.070818
0.084065
0.116029
0.151797
0.198525
0.222567
0.278276
0.315698
0.362752
0.406160
0.456300
0.480571
0.516914
0.542722
0.569596
0.604892
0.598810
0.606827
0.614975
0.618229
0.606749
0.613532
0.604361
0.598844
0.557620
0.563949
0.514059
0.555101
0.491127
0.481741
0.423614
0.453425
0.411867
0.393085
0.386062
0.364686
0.358728
0.364643
0.348298
0.332166
0.323887
0.324163
0.316840
0.338450
0.310257
0.307467
0.292719
0.304742
0.306450
0.309776
0.318827
0.296755
0.294399
0.274786
0.286748
0.268553
0.289745
0.264089
0.282963
0.254609
0.262270
0.281011
0.261191
0.258799
0.262642
0.265821
0.246636
0.250169
0.198624
0.231889
0.228984
0.223319
0.202580
0.212198
0.196512
0.191095
0.182904
0.190840
0.187046
0.152956
0.175418
0.143903
0.174623
0.141602
0.158829
0.124183
0.131845
0.123284
0.115291
0.102556
0.126295
0.119951
0.054789
0.094413
0.105669
0.087764
0.077078
0.075452
0.051410
0.077442
0.081875
0.058268
0.060404
0.051529
0.039590
0.048150
0.045839
0.033395
0.044896
0.062835
0.064353
0.038573
0.021378
0.038675
0.013575
0.040217
0.036779
0.015010
0.021383
0.005176
0.012461
-0.005064
0.028797
0.021222
-0.020210
0.000838
0.003971
0.018101
0.020990
0.006334
0.015531
0.005513
0.021790
0.009592
-0.003310
-0.008993
0.004131
0.016905
-0.016157
-0.002733
-0.021797
-0.003734
0.015675
0.008452
0.014462
0.013418
-0.002583
0.021360
-0.004999
0.005598
-0.011509
-0.002471
0.004183
0.038812
-0.008754
0.008681
-0.014933
-0.008853
-0.002893
0.035993
-0.001608
0.021821
-0.007481
-0.012335
0.003681
0.025207
-0.008241
-0.018312
-0.027787
-0.004217
0.003912
0.010901
-0.010487
-0.003527
0.008287
-0.017705
-0.016214
-0.024728
0.008557
0.015095
-0.022002
-0.027842
-0.022326
-0.010323
0.027903
0.014643
0.009633
-0.024804
-0.019746
0.002813
-0.004134
0.013610
-0.002636
-0.017162
0.004439
-0.002763
0.013964
-0.010566
-0.014558
-0.010413
-0.003751
-0.005246
0.003543
-0.012308
0.014673
0.012857
0.009466
0.010384
0.000322
0.008885
0.014809
-0.002528
0.003103
-0.007245
0.017805
-0.003781
0.012329
0.011596
-0.008885
0.008454
0.030113
0.059336
0.041534
0.034528
0.033553
0.048788
0.051043
0.082311
0.099095
0.091012
0.081677
0.084033
0.124518
0.098169
0.133756
0.149704
0.138302
0.129166
0.150304
0.130995
0.140532
0.146887
0.143924
0.190967
0.126420
0.128000
0.120729
0.090304
0.106962
0.103582
0.075200
0.075430
0.075122
0.063933
0.045486
0.033507
0.043756
0.054371
0.005438
0.040577
0.009157
0.022009
0.001603
-0.017823
-0.002972
-0.058342
0.014270
-0.006797
-0.033864
-0.011593
-0.047350
-0.040975
-0.009974
-0.040630
-0.034398
-0.057963
-0.038642
0.008559
-0.003599
0.007854
0.005355
0.068011
0.096365
0.138824
0.190417
0.241295
0.296739
0.373129
0.460503
0.495062
0.576290
0.655794
0.726781
0.843946
0.885170
0.918240
0.945489
0.993819
0.982731
0.953703
0.970206
0.934547
0.854692
0.817259
0.751035
0.707920
0.605406
0.497247
0.434452
0.360653
0.271190
0.228151
0.167003
0.095444
0.046282
0.021664
0.045971
0.020102
-0.001151
0.038078
0.063646
0.064394
0.111230
0.132123
0.187946
0.206200
0.305010
0.320192
0.362078
0.387646
0.433637
0.493121
0.510220
0.545666
0.586547
0.607739
0.598102
0.615265
0.601302
0.605448
0.606248
0.603184
0.632479
0.585789
0.547209
0.529846
0.513862
0.514906
0.463732
0.486411
0.442768
0.447820
0.431697
0.392023
0.425302
0.364622
0.347526
0.350677
0.343310
0.342327
0.316124
0.326706
0.347335
0.305533
0.312606
0.322063
0.292656
0.312207
0.312551
0.331325
0.280093
0.325081
0.304668
0.302676
0.299119
0.296445
0.269398
0.286069
0.263268
0.276822
0.257441
0.271330
0.279327
0.258030
0.255567
0.252030
0.234960
0.245252
0.223055
0.235276
0.231992
0.229486
0.194466
0.200043
0.210363
0.216736
0.176956
0.192938
0.163049
0.179801
0.181833
0.136876
0.177703
0.149550
0.145393
0.127085
0.149080
0.133381
0.128577
0.116812
0.128001
0.092808
0.080864
0.125533
0.085173
0.097085
0.086982
0.083621
0.046456
0.065855
0.053819
0.084807
0.086195
0.060128
0.073537
0.055981
0.041616
0.071714
0.062449
0.025616
0.051610
0.025360
0.016285
0.033239
0.030729
0.027278
0.031670
0.031720
0.005493
0.050645
0.015116
-0.015340
0.026371
0.021513
-0.003924
0.016032
0.020930
-0.005153
0.016774
-0.001907
-0.018192
0.002663
-0.006842
-0.002085
-0.001270
0.000187
0.002406
0.024271
0.003111
0.019274
0.013739
0.002423
0.017825
-0.004753
0.012090
0.027579
0.007194
0.014173
-0.014981
-0.017823
-0.012989
-0.011251
0.003825
-0.012643
0.032759
-0.025434
-0.037525
-0.026708
-0.001747
0.004655
0.035549
-0.018772
0.004282
-0.011546
0.016817
0.005979
0.004107
0.011673
-0.005098
-0.057483
-0.010737
-0.008756
0.007110
-0.011951
0.001313
0.013959
-0.000691
-0.004377
-0.007260
-0.019214
-0.016180
0.004513
0.000027
0.016870
-0.000201
-0.006129
0.022791
-0.015211
-0.012364
-0.010716
-0.018656
0.009930
0.010785
0.002184
-0.010630
-0.006083
0.016051
0.001974
0.001572
-0.003196
0.011045
-0.009190
0.029288
0.021428
0.005159
0.021991
0.011887
0.008703
-0.003991
0.011377
-0.013439
0.021338
0.000644
0.006428
0.028617
0.017678
0.021890
0.022956
0.014558
0.020866
0.039766
-0.021289
-0.006104
0.006498
0.036011
0.054878
0.086147
0.045183
0.062713
0.065478
0.093463
0.129484
0.119636
0.125272
0.103004
0.156573
0.127774
0.140430
0.164053
0.141588
0.168656
0.128804
0.137209
0.116212
0.136390
0.125543
0.128977
0.110090
0.114207
0.107281
0.099718
0.069737
0.064656
0.075110
0.076108
0.049879
0.035299
0.016323
0.048839
0.037878
0.025202
-0.014961
-0.011438
0.004281
-0.016759
-0.039785
-0.011379
-0.025881
-0.021549
-0.050243
-0.005393
-0.042640
-0.039635
-0.028100
-0.036151
-0.016004
-0.031565
0.001565
-0.008229
-0.014939
0.031787
0.064598
0.089006
0.129677
0.175176
0.272749
0.315704
0.377773
0.443178
0.529415
0.561522
0.672197
0.758012
0.830557
0.885693
0.890367
0.960193
0.969469
0.999532
0.981046
0.947503
0.907824
0.899008
0.823263
0.767846
0.659856
0.595329
0.490255
0.406103
0.356823
0.270971
0.216298
0.150981
0.113167
0.090192
0.042083
0.050207
0.043832
0.038624
0.058085
0.057419
0.073210
0.113269
0.147465
0.189184
0.224501
0.294234
0.313247
0.349685
0.409875
0.423389
0.468728
0.497815
0.532190
0.551203
0.578023
0.610539
0.609890
0.624897
0.601042
0.591411
0.608620
0.577206
0.575500
0.584434
0.528496
0.506049
0.495153
0.494324
0.449882
0.464162
0.430536
0.400467
0.400842
0.410970
0.347102
0.361825
0.341797
0.351232
0.323685
0.322246
0.346834
0.318230
0.333527
0.325121
0.321151
0.292426
0.294917
0.292046
0.334866
0.315311
0.304148
0.287676
0.300926
0.323439
0.310707
0.275214
0.273519
0.274589
0.262654
0.290267
0.268700
0.296452
0.276791
0.236241
0.265142
0.271901
0.237633
0.223874
0.196899
0.209628
0.217810
0.197470
0.220382
0.200556
0.189327
0.184074
0.196506
0.205730
0.148717
0.162364
0.184986
0.149836
0.150816
0.165078
0.151273
0.128758
0.123567
0.118689
0.116113
0.115237
0.100777
0.102901
0.128234
0.077912
0.066336
0.075683
0.095397
0.074413
0.064157
0.078569
0.054529
0.073386
0.058369
0.047857
0.042731
0.050992
0.047351
0.038114
0.048183
0.054307
0.050101
0.061713
0.023357
0.049057
0.036611
0.038013
0.018662
0.033197
0.009124
0.023594
0.001303
0.030708
-0.001551
0.012375
0.005116
0.014083
-0.007068
0.020795
0.037547
0.014487
0.006647
0.003936
0.033274
0.005345
0.016090
0.017507
-0.009515
0.025763
0.008922
-0.004560
-0.005038
-0.018757
0.003230
-0.010096
-0.015514
-0.008985
-0.035542
0.010759
0.015946
0.011072
-0.011893
0.005776
0.002080
0.001138
-0.009353
-0.012019
0.032499
0.008508
-0.028464
0.027593
0.009828
-0.000269
0.005542
0.003699
0.007947
0.002957
0.012450
0.008948
-0.026130
0.030315
0.011097
0.013896
0.011214
-0.012823
0.003023
-0.021369
0.003983
-0.003139
0.011838
-0.024711
-0.001230
-0.021978
-0.025135
-0.017290
-0.020900
0.015274
-0.015081
0.014160
0.009235
0.008182
-0.009891
-0.006350
0.007681
0.006017
-0.000176
0.007024
0.030017
0.023767
-0.008232
0.021323
0.005796
0.008905
-0.018034
-0.004590
-0.001005
-0.012871
0.014741
0.012931
-0.015226
0.025798
0.012269
-0.010941
-0.041038
-0.008215
-0.004463
-0.006566
0.015922
0.007800
0.030078
-0.014216
0.020636
0.038679
0.043690
0.059238
0.053414
0.039050
0.078050
0.093970
0.063075
0.065678
0.108288
0.096809
0.124897
0.133554
0.147773
0.162505
0.145905
0.159141
0.153710
0.156643
0.143756
0.141991
0.151498
0.110797
0.137294
0.140818
0.116557
0.103908
0.088849
0.084814
0.075833
0.079791
0.073417
0.059951
0.025589
0.045261
0.032196
0.025962
0.048858
0.016768
0.006160
-0.007142
-0.005813
0.017393
-0.003666
-0.041377
-0.021763
-0.031779
-0.032730
-0.035724
-0.046210
-0.040452
-0.038575
-0.085905
-0.032884
-0.031775
-0.050294
-0.007656
-0.001528
0.031159
0.073517
0.076807
0.158706
0.201648
0.279846
0.301307
0.379147
0.452134
0.518748
0.593759
0.688737
0.762697
0.803039
0.868820
0.947649
0.956279
0.985369
0.995849
0.958285
0.941229
0.916647
0.862874
0.812596
0.743730
0.672114
0.583868
0.485214
0.431628
0.359478
0.280119
0.202232
0.148372
0.134109
0.093268
0.034447
0.033937
-0.014493
0.015850
0.032084
0.037416
0.108012
0.088533
0.143999
0.169614
0.211116
0.252410
0.312120
0.391264
0.393667
0.433905
0.475697
0.515006
0.541757
0.544547
0.554443
0.597753
0.576878
0.612138
0.615148
0.622783
0.598567
0.607688
0.568664
0.557164
0.521456
0.517104
0.510394
0.497273
0.486475
0.460415
0.427010
0.405254
0.405528
0.385544
0.363253
0.338227
0.349643
0.308761
0.326371
0.313755
0.343260
0.337104
0.306844
0.316741
0.314008
0.321339
0.307355
0.280378
0.329856
0.271869
0.308014
0.282025
0.273092
0.272223
0.269953
0.318568
0.288920
0.273548
0.271459
0.266974
0.240280
0.267200
0.262972
0.247893
0.258168
0.268307
0.255570
0.246457
0.242683
0.206582
0.213093
0.198174
0.212251
0.207750
0.170965
0.182119
0.166843
0.173483
0.168058
0.184823
0.177756
0.142870
0.165949
0.140700
0.137456
0.118566
0.130663
0.133621
0.112261
0.111568
0.098022
0.096470
0.108193
0.051497
0.104962
0.079951
0.100112
0.046861
0.063041
0.069469
0.074414
0.084446
0.044231
0.057583
0.056844
0.041126
0.056899
0.061008
0.043192
0.061549
0.046167
0.029608
0.011545
0.036514
0.047158
0.032276
0.013273
0.035974
0.022451
0.010225
0.009553
0.012967
0.017796
0.015805
0.040559
0.006356
-0.004092
0.006333
0.011372
-0.012754
-0.006121
-0.008025
-0.003336
0.001295
0.007209
0.021615
0.027074
-0.032515
0.018949
-0.000636
-0.017247
0.020324
0.010529
0.003318
-0.002649
0.001869
0.000156
0.009532
0.013281
0.001250
0.003697
0.005487
0.014389
-0.026643
0.002662
-0.018836
0.014011
0.020255
-0.006535
0.007436
0.014087
-0.014610
-0.025508
-0.022617
-0.000949
0.018926
-0.005054
0.000743
0.007303
0.029134
0.023858
0.002739
-0.009274
-0.011029
-0.000951
-0.005561
0.018604
0.014746
-0.006605
0.021835
-0.021981
0.020796
-0.014634
-0.001085
0.012381
0.023188
0.017124
0.015662
-0.016551
-0.012431
0.020257
-0.008012
-0.005628
0.006513
-0.008953
0.018862
0.018841
0.012551
0.008250
-0.006052
-0.003253
-0.000129
-0.028474
-0.018986
-0.002923
0.005218
-0.031875
-0.002209
0.001413
0.018874
-0.011815
0.031152
-0.012522
0.013489
0.019428
-0.004063
0.037298
0.029279
0.012163
0.016047
0.024866
0.072468
0.000983
0.043596
0.058322
0.068972
0.061580
0.088450
0.098624
0.080506
0.087024
0.129838
0.100698
0.119228
0.141459
0.152290
0.148478
0.179598
0.167036
0.169233
0.154744
0.154306
0.135953
0.142614
0.127269
0.119136
0.109916
0.105372
0.091338
0.081915
0.091490
0.082688
0.075917
0.056225
0.047963
0.042795
0.070646
0.028639
0.011372
0.012692
0.029964
0.025713
0.013870
0.002129
0.002655
0.011326
-0.003119
-0.018280
0.004971
-0.033621
-0.039858
-0.055764
-0.050327
-0.076446
-0.053058
-0.027989
-0.028314
-0.023073
-0.018202
0.018205
0.049775
0.102177
0.110444
0.176487
0.231102
0.315871
0.368669
0.454913
0.540215
0.576050
0.676257
0.753211
0.820648
0.885823
0.945338
0.953065
0.974604
0.977636
0.940615
0.934632
0.947443
0.878746
0.801085
0.761218
0.664969
0.615265
0.499540
0.393910
0.337682
0.295953
0.214735
0.143038
0.129865
0.094705
0.048680
0.033160
0.025963
0.006774
0.023212
0.054420
0.079991
0.099734
0.131931
0.202785
0.226025
0.281340
0.323054
0.384794
0.389517
0.428501
0.464216
0.521194
0.575446
0.532144
0.598550
0.608551
0.615809
0.634243
0.623735
0.607278
0.610681
0.587313
0.592891
0.568748
0.557192
0.525700
0.524448
0.495076
0.480262
0.469220
0.409326
0.432969
0.399571
0.376752
0.386496
0.361848
0.336787
0.339460
0.341599
0.327890
0.330093
0.363891
0.332369
0.345503
0.329010
0.289748
0.289587
0.311736
0.306273
0.328076
0.271488
0.317282
0.301846
0.279485
0.300586
0.258075
0.285930
0.277789
0.281615
0.304382
0.242459
0.244291
0.249754
0.260660
0.248372
0.243234
0.236558
0.244749
0.225755
0.214893
0.222620
0.209360
0.182464
0.199964
0.191106
0.182924
0.159325
0.177338
0.166111
0.165012
0.134801
0.147761
0.161037
0.134674
0.086307
0.114351
0.111512
0.118679
0.115937
0.108402
0.113637
0.105625
0.103423
0.074748
0.065397
0.117295
0.100440
0.066631
0.052216
0.079392
0.075498
0.079025
0.057972
0.058510
0.057094
0.081098
0.051693
0.060110
0.037883
0.019194
0.042935
0.036625
0.052050
0.035029
0.016640
0.006273
0.031717
0.046822
0.033099
0.004787
-0.000220
0.004780
-0.002062
0.014993
0.025489
0.009985
0.001851
0.035671
0.037232
0.003920
-0.006274
-0.036418
0.014862
0.002328
-0.006408
0.031027
-0.024761
0.013010
0.001967
-0.009808
-0.011715
0.018080
0.017859
-0.000350
0.012002
0.003151
-0.009757
-0.002897
0.000339
-0.000690
0.001950
0.017520
-0.014241
-0.004021
0.020057
-0.033699
0.003208
-0.007173
0.011719
0.012472
0.007924
0.007807
0.010561
0.005462
-0.004127
0.011430
0.000869
0.016366
-0.013218
-0.007296
0.009859
-0.031019
-0.010036
-0.026310
0.004001
-0.004716
-0.013087
0.010219
0.016866
-0.008379
-0.007615
0.003681
0.031414
-0.009743
-0.009288
-0.015907
-0.023103
0.017121
0.021420
-0.012629
0.005590
0.010617
-0.001296
-0.003129
-0.007185
-0.008913
0.018642
0.006683
-0.016399
-0.006522
-0.001420
-0.010859
-0.020469
0.014159
0.005270
0.016326
-0.005957
0.001233
-0.019128
0.032917
-0.004307
0.017806
0.001796
0.001368
0.000272
-0.003266
-0.024545
-0.035663
0.037675
0.057181
0.016039
0.002864
0.027492
0.029507
0.034210
0.077484
0.075547
0.077257
0.072247
0.065934
0.118134
0.074464
0.142998
0.095316
0.124764
0.146580
0.127950
0.147506
0.121658
0.163700
0.117175
0.162388
0.120162
0.132571
0.154256
0.109612
0.130077
0.101180
0.114084
0.104049
0.110468
0.066297
0.043019
0.051768
0.053680
0.045249
0.023296
0.027489
0.033936
0.017953
-0.032348
0.013736
-0.001105
0.031981
0.000991
-0.038846
-0.017319
-0.046090
-0.027584
-0.020294
-0.061068
-0.044780
-0.059547
-0.047258
-0.042066
-0.048857
-0.034544
-0.003854
0.005801
0.001021
0.052191
0.092437
0.113756
0.181589
0.255115
0.294350
0.385450
0.462416
0.499182
0.602605
0.676248
0.731405
0.828375
0.869380
0.918667
0.972033
0.947184
0.967172
1.005351
0.985991
0.906733
0.875359
0.829795
0.723727
0.658325
0.589739
0.491235
0.436115
0.376201
0.274538
0.207382
0.163671
0.123461
0.079555
0.042863
0.010745
0.011919
0.028160
0.049543
0.050292
0.088482
0.120028
0.132533
0.193439
0.217257
0.261327
0.340234
0.378831
0.391014
0.437821
0.475624
0.526974
0.541235
0.556518
0.599094
0.604556
0.602123
0.647606
0.603726
0.619913
0.608488
0.601189
0.594219
0.565108
0.525505
0.563436
0.494701
0.470484
0.473060
0.412806
0.408901
0.409077
0.422282
0.401256
0.400074
0.356906
0.341846
0.369525
0.333720
0.318342
0.331884
0.335152
0.311885
0.316157
0.327029
0.302200
0.305952
0.301684
0.302634
0.296930
0.287594
0.299481
0.308008
0.281415
0.303648
0.285970
0.276326
0.296163
0.267852
0.274646
0.241423
0.267951
0.276277
0.231912
0.244792
0.220536
0.254226
0.221784
0.213770
0.213237
0.234546
0.215055
0.207954
0.197656
0.188242
0.190666
0.198004
0.180576
0.158327
0.182820
0.163781
0.156685
0.159765
0.147565
0.133404
0.109910
0.116600
0.140326
0.108447
0.142022
0.114197
0.119128
0.074575
0.102081
0.081848
0.084859
0.078242
0.095826
0.052993
0.064518
0.043991
0.046801
0.066429
0.096210
0.071043
0.062564
0.054416
0.063604
0.037867
0.057769
0.027691
0.035210
0.044805
0.042486
0.040699
0.047561
0.035817
0.010503
-0.012801
0.029928
0.025212
0.004202
0.026288
-0.005934
0.007849
0.008783
-0.010571
0.009721
-0.006251
-0.003394
-0.016855
0.019207
-0.011542
0.020413
-0.006008
0.001542
0.007871
0.008640
-0.023360
-0.012009
-0.013446
-0.016124
0.002756
0.001115
0.009404
-0.018093
0.014216
-0.001374
0.010648
-0.035707
0.006890
0.014498
0.002264
0.015156
-0.032139
0.005697
-0.002692
-0.007183
-0.015708
0.009829
0.010234
-0.014268
-0.008642
0.008751
0.009705
-0.011849
-0.023674
0.009648
-0.006668
-0.009628
0.027426
-0.004719
-0.010377
-0.008207
-0.005489
0.005380
-0.017243
0.009626
-0.002121
0.006787
0.009784
0.006374
-0.019699
-0.031550
0.011292
0.002038
-0.007704
-0.005696
-0.008574
0.002112
-0.013421
-0.011735
-0.029836
0.016532
0.010791
-0.011414
-0.007300
0.003874
-0.001983
-0.001047
-0.004187
-0.000489
-0.016340
-0.016812
0.018195
-0.014266
-0.020286
0.004801
-0.009282
0.010005
-0.010304
-0.005402
0.011659
-0.020208
-0.010932
0.000722
0.021917
0.037310
0.015335
0.013062
0.035529
0.038022
0.027734
0.028688
0.057701
0.039375
0.063836
0.080514
0.081322
0.066737
0.110282
0.092148
0.081663
0.133840
0.142907
0.119700
0.135377
0.144844
0.144166
0.139776
0.144165
0.124086
0.142986
0.146675
0.111631
0.118053
0.113230
0.093365
0.098722
0.090404
0.048600
0.071514
0.069233
0.049782
0.070489
0.038730
0.055299
0.004988
0.032691
0.023479
-0.001214
-0.013032
0.017340
-0.020727
0.021966
0.010185
-0.012470
-0.049594
-0.037824
-0.024070
-0.042044
-0.036297
-0.051903
-0.035690
-0.046688
-0.027924
-0.041070
-0.017456
-0.023974
0.027473
0.075772
0.084644
0.151795
0.197831
0.236591
0.295473
0.399984
0.456613
0.520408
0.598810
0.685033
0.749172
0.811873
0.842000
0.916157
0.950852
0.995413
0.977458
1.006487
0.941435
0.933061
0.870201
0.812170
0.718254
0.677608
0.587718
0.487441
0.437704
0.368027
0.298348
0.206523
0.138952
0.109603
0.113301
0.037637
0.027193
0.023767
0.016815
0.035483
0.031564
0.067063
0.096087
0.135314
0.180003
0.219295
0.274059
0.306412
0.362427
0.426798
0.453345
0.432958
0.512927
0.530429
0.566608
0.576144
0.607517
0.636039
0.605496
0.635476
0.629865
0.614207
0.560300
0.582384
0.525522
0.552627
0.520447
0.505029
0.511308
0.467895
0.395773
0.414391
0.431064
0.410848
0.405692
0.360714
0.351075
0.342623
0.348363
0.329578
0.314482
0.345615
0.291000
0.321866
0.307606
0.296034
0.337548
0.330536
0.315724
0.294429
0.285482
0.271426
0.290763
0.332409
0.280767
0.292168
0.276170
0.261617
0.283472
0.286363
0.267539
0.250347
0.270478
0.269290
0.248269
0.245118
0.246372
0.246939
0.238281
0.224148
0.216989
0.223301
0.207102
0.210978
0.181884
0.204453
0.149113
0.186245
0.198636
0.163408
0.175019
0.151956
0.161182
0.159468
0.129305
0.153046
0.134907
0.127652
0.121875
0.127094
0.154503
0.088356
0.102877
0.070887
0.094181
0.118684
0.071064
0.090824
0.084609
0.091220
0.073378
0.069944
0.089805
0.037512
0.054661
0.047665
0.063518
0.038747
0.060568
0.058360
0.034548
0.039715
0.033001
0.023821
0.023490
0.021145
0.036708
0.013098
0.024160
0.051062
0.023047
0.004716
0.012340
0.003498
0.019841
0.013747
0.019304
0.020276
0.012100
0.019777
0.018863
0.009529
-0.006441
0.011388
-0.008660
0.015200
-0.003839
-0.016692
0.009973
-0.009212
-0.010696
0.000025
0.008153
0.017109
0.000954
0.000224
0.012936
0.000332
0.022805
0.011943
0.026732
-0.007422
0.004865
0.008658
-0.014103
-0.020721
0.027150
0.008990
0.000077
-0.030747
0.005488
-0.022321
-0.008569
-0.025535
0.032299
-0.002918
-0.011460
-0.007980
0.008575
0.016588
-0.010412
0.004723
0.005585
0.005013
0.000949
0.022025
-0.001027
-0.026912
-0.015827
-0.001984
-0.001353
0.022485
0.006485
0.015992
-0.002850
-0.022696
-0.022179
0.018768
-0.009245
0.013856
-0.010066
-0.023570
-0.011221
-0.016721
0.016571
0.010653
0.014097
-0.019604
-0.030394
0.035838
-0.007566
0.020753
0.012842
0.000120
0.007176
-0.013779
0.007671
-0.014396
-0.001863
0.014989
-0.002519
-0.045169
-0.015388
-0.039311
-0.018801
-0.012283
-0.003796
0.001568
0.000937
0.022467
0.025666
0.045721
0.031232
0.048622
0.030393
0.064099
0.063117
0.070873
0.079984
0.081530
0.077525
0.106397
0.101238
0.115195
0.159323
0.133136
0.155091
0.155199
0.139059
0.162175
0.164939
0.159962
0.151060
0.132785
0.115484
0.143181
0.106428
0.104921
0.126192
0.114459
0.071954
0.099710
0.073059
0.068095
0.064718
0.063656
0.014619
0.032551
0.031271
0.029301
0.018994
0.012688
0.005791
-0.020392
0.015592
-0.032440
-0.033416
-0.031942
-0.013074
-0.059216
-0.026762
-0.028604
-0.053788
-0.064112
-0.033072
-0.046889
-0.060178
-0.030596
-0.009004
-0.006667
0.028962
0.052486
0.101647
0.162012
0.179770
0.236836
0.288511
0.377078
0.461641
0.542873
0.590321
0.675639
0.726403
0.802094
0.877174
0.882010
0.948190
0.994450
0.986783
0.996813
0.947087
0.915725
0.872760
0.831908
0.734730
0.667969
0.610290
0.540605
0.433253
0.347650
0.273762
0.227014
0.161161
0.114373
0.075071
0.036420
0.014933
0.016618
0.028381
0.068390
0.057902
0.075210
0.127549
0.139118
0.177090
0.216800
0.253392
0.304354
0.352473
0.404944
0.453681
0.477922
0.499716
0.555987
0.552678
0.569634
0.605858
0.604970
0.630683
0.597918
0.615342
0.605430
0.601025
0.599213
0.575033
0.560865
0.506259
0.495160
0.490025
0.504990
0.453420
0.442201
0.429949
0.410822
0.406526
0.334299
0.354083
0.349212
0.355835
0.323021
0.329636
0.325000
0.310783
0.305739
0.323680
0.322621
0.315921
0.295553
0.275293
0.308009
0.301923
0.302171
0.298642
0.283714
0.293005
0.286121
0.265245
0.274247
0.296935
0.300867
0.275937
0.246392
0.240607
0.269281
0.248645
0.244412
0.245589
0.224777
0.263768
0.220297
0.215098
0.238373
0.220422
0.194244
0.189770
0.170978
0.198309
0.175305
0.202570
0.167202
0.167703
0.147215
0.135466
0.149434
0.165783
0.135620
0.143501
0.131851
0.119783
0.133080
0.122513
0.119944
0.114379
0.115871
0.114899
0.090008
0.081909
0.076987
0.063986
0.056381
0.062979
0.102997
0.035942
0.080232
0.052882
0.063756
0.069067
0.030851
0.037460
0.031052
0.043979
0.051650
0.032259
0.045754
0.022954
0.042403
0.018900
0.013222
0.035988
0.009999
0.013943
0.019786
0.032191
-0.001161
0.009908
-0.018234
-0.005255
-0.011432
0.026510
0.007474
-0.001036
0.001751
0.000238
0.013231
0.020944
-0.047674
0.022653
-0.009085
-0.001940
0.002631
0.021401
0.025458
-0.011806
0.015236
-0.003605
0.010088
0.022711
-0.007936
0.006548
-0.003894
0.004262
0.005297
-0.022862
-0.018896
0.003760
0.022590
0.008305
-0.008584
0.001983
-0.000395
-0.019710
0.001922
0.027226
0.020366
-0.013257
0.012803
-0.006654
0.005444
-0.001397
-0.037035
0.006543
0.003270
0.000935
-0.011675
-0.026171
0.023329
-0.004540
-0.046008
-0.004879
-0.016952
-0.007815
-0.004693
-0.017942
0.000656
-0.009211
-0.016927
0.020480
0.023863
-0.008689
0.020098
0.008718
-0.003320
0.001721
-0.020688
0.002570
0.020843
-0.014109
0.002626
-0.005084
-0.015356
-0.001439
-0.024640
-0.001021
-0.013804
-0.020216
-0.001697
0.009765
0.020135
-0.008034
-0.005620
0.015789
-0.013451
0.010683
0.003586
-0.018426
0.001803
-0.000118
0.014181
0.047147
0.018808
0.039055
0.009863
0.032528
0.027903
0.036165
0.054545
0.061942
0.071523
0.085530
0.095722
0.104422
0.101573
0.095009
0.119630
0.125544
0.114217
0.131507
0.151717
0.143002
0.165711
0.187241
0.139074
0.152916
0.169634
0.174485
0.148386
0.119203
0.127465
0.101714
0.114772
0.080288
0.067947
0.051517
0.071214
0.054263
0.059061
0.051557
0.064583
0.025015
0.016823
-0.002269
0.021180
0.016213
-0.013744
-0.042520
-0.023139
-0.025111
-0.002781
-0.021881
-0.046743
-0.043382
-0.032314
-0.019099
-0.051916
-0.030504
-0.043930
-0.025443
-0.038426
-0.011551
-0.004133
-0.000166
0.015063
0.105622
0.142233
0.190669
0.237198
0.287525
0.376197
0.466554
0.538555
0.590018
0.687898
0.732172
0.826111
0.879332
0.926518
0.951845
0.963370
1.009238
0.969281
0.969044
0.907692
0.863940
0.797275
0.758852
0.676697
0.589204
0.514896
0.420773
0.382212
0.279866
0.218784
0.151415
0.145133
0.086615
0.009320
0.053253
0.006638
0.042862
0.044453
0.074022
0.098268
0.125003
0.137959
0.184247
0.241100
0.268884
0.322783
0.362406
0.393813
0.441846
0.487693
0.528942
0.563543
0.553922
0.596367
0.625012
0.595847
0.597955
0.595613
0.611360
0.617513
0.593109
0.592328
0.608769
0.569096
0.526312
0.490498
0.504834
0.462590
0.448676
0.429953
0.435371
0.413506
0.392847
0.362182
0.383247
0.332404
0.345552
0.357131
0.333703
0.296201
0.324943
0.327572
0.324391
0.314959
0.308487
0.305682
0.270047
0.284462
0.311492
0.293248
0.334993
0.297735
0.313446
0.283603
0.262639
0.283304
0.258390
0.277418
0.273704
0.275085
0.280062
0.244919
0.261406
0.259812
0.232754
0.234760
0.220379
0.230959
0.248215
0.205069
0.221160
0.213933
0.203481
0.169898
0.161098
0.203972
0.170481
0.185028
0.175645
0.185058
0.155473
0.149189
0.180007
0.132496
0.146350
0.132289
0.121306
0.123113
0.123244
0.128109
0.077391
0.109177
0.097101
0.107550
0.090923
0.083323
0.079985
0.058828
0.103152
0.055240
0.061058
0.055937
0.060607
0.047006
0.038615
0.057031
0.041966
0.038103
0.036577
0.036961
0.014284
0.010716
0.051335
0.003930
0.035696
0.014087
0.004477
0.043797
0.016427
0.036935
-0.003474
0.019713
0.018238
0.006742
0.005671
-0.006017
0.014023
0.015148
-0.029863
0.014674
0.013879
-0.006536
0.027199
0.001910
0.013787
0.008816
-0.009873
-0.004111
0.004152
-0.005032
-0.008890
-0.020014
0.000839
-0.025753
0.016199
0.006743
0.007453
-0.029814
0.011796
0.017817
-0.017920
-0.010666
-0.000604
-0.003182
0.004121
-0.012887
-0.001320
0.025984
0.002220
0.013198
-0.015668
-0.029329
0.000701
-0.022359
-0.015383
0.014889
0.009892
-0.008181
-0.006468
0.013303
-0.009927
0.027380
0.009973
0.010837
0.020007
0.010697
-0.007528
-0.019991
-0.012735
-0.003590
-0.016811
0.005277
-0.006999
0.007966
0.015515
0.002779
-0.006142
-0.009249
0.006984
-0.014591
0.006313
0.006606
-0.003961
-0.001612
-0.014680
0.024088
0.013682
-0.004427
0.013013
0.025895
0.012883
-0.000351
-0.008287
0.004926
0.016285
0.009390
-0.009678
-0.027383
-0.006761
0.019356
-0.003329
0.006798
0.011764
0.013997
0.000314
-0.015754
-0.000150
0.021076
0.032995
0.016795
0.032114
0.042177
0.054632
0.046858
0.050211
0.047379
0.084052
0.102032
0.086324
0.091740
0.115631
0.092632
0.142590
0.133012
0.148790
0.125183
0.135490
0.152254
0.167352
0.134284
0.127894
0.101281
0.119725
0.144044
0.122951
0.133985
0.103956
0.098014
0.093361
0.090640
0.071998
0.056396
0.049067
0.054434
0.033678
0.020917
0.023398
0.012739
0.002881
0.021663
0.003037
-0.015798
0.033121
-0.026408
-0.019616
-0.028374
-0.046638
-0.066022
-0.027062
-0.034320
-0.042701
-0.064354
-0.028912
-0.041370
-0.040822
-0.060584
0.005992
-0.000000
0.019843
0.030381
0.074706
0.151263
0.181425
0.232681
0.299868
0.365499
0.456977
0.535067
0.630241
0.683316
0.746426
0.812638
0.866497
0.946069
0.943014
0.989879
0.985160
0.985918
0.956773
0.896893
0.860768
0.809471
0.773371
0.675887
0.586488
0.492456
0.417531
0.368096
0.299734
0.199186
0.166746
0.120103
0.093810
0.045249
0.041731
0.002579
0.019307
0.034398
0.069391
0.099251
0.101211
0.160469
0.183312
0.253706
0.278061
0.338108
0.372923
0.410847
0.456138
0.478695
0.527102
0.538335
0.552044
0.593954
0.577028
0.609365
0.623556
0.631260
0.602652
0.623764
0.599103
0.561198
0.581805
0.571891
0.542300
0.510352
0.506239
0.514212
0.463332
0.431143
0.421476
0.404856
0.369975
0.366892
0.379236
0.374049
0.334841
0.344275
0.335254
0.309397
0.307450
0.313870
0.322775
0.283740
0.306829
0.311947
0.294845
0.319113
0.281631
0.327118
0.301646
0.287931
0.288401
0.262510
0.261727
0.299182
0.283422
0.295279
0.279122
0.240801
0.285124
0.274207
0.238741
0.232114
0.241267
0.206688
0.245554
0.242852
0.210739
0.206636
0.242391
0.207963
0.194665
0.214224
0.170890
0.185187
0.175578
0.182133
0.175734
0.168547
0.152717
0.146937
0.160931
0.134602
0.132513
0.119717
0.100136
0.107503
0.096257
0.098155
0.122586
0.088631
0.103035
0.110010
0.087458
0.078085
0.062873
0.069700
0.047874
0.072253
0.083042
0.076272
0.071195
0.053648
0.057077
0.025718
0.058908
0.027304
0.055857
0.058394
0.023741
0.029146
0.020229
0.029224
0.028134
0.048660
0.015253
0.046674
0.027739
0.021331
0.023531
0.021216
0.018370
0.008675
0.023341
0.019576
-0.000061
0.005468
0.002757
0.005649
0.002209
-0.001569
-0.003283
-0.006336
0.005467
0.030513
0.001610
0.024486
0.010967
0.020360
0.030495
0.018156
-0.022752
0.006222
-0.006130
0.011344
0.009901
0.013471
0.017890
-0.009528
0.005665
-0.015111
0.009801
0.022701
-0.000870
0.003007
0.014635
0.003333
0.006957
0.032230
0.023535
-0.004158
-0.002170
-0.002305
0.005614
0.011286
-0.005907
0.011129
-0.000925
0.014788
0.020721
0.004405
-0.006409
0.032857
-0.029502
0.024144
0.023716
0.017950
-0.003145
-0.005398
0.008847
-0.016023
0.010209
-0.018873
-0.006542
-0.015859
-0.002600
-0.012131
0.003077
0.020102
0.014186
0.009561
0.011094
0.016850
0.001169
0.005618
-0.006468
0.001720
-0.004571
-0.021154
0.020842
0.002723
-0.018135
0.011710
0.009853
0.014604
0.002765
-0.008757
-0.022793
0.000832
0.007122
0.002664
0.025843
0.003623
0.024497
0.001636
0.018245
0.026596
0.010539
0.018695
0.039155
0.042303
0.024826
0.037427
0.037699
0.077568
0.051622
0.107013
0.056639
0.107381
0.094841
0.114614
0.126833
0.145193
0.129174
0.131032
0.142914
0.115624
0.155888
0.155853
0.168738
0.137790
0.103845
0.112365
0.098526
0.120828
0.121731
0.116552
0.103303
0.093238
0.091030
0.059268
0.043659
0.040030
0.051836
0.025503
0.065636
0.040209
0.002498
0.017376
-0.007896
0.007380
0.003433
-0.012998
-0.019528
-0.010984
-0.013782
-0.040678
-0.040717
-0.043074
-0.078328
-0.058013
-0.069324
-0.050097
-0.030220
-0.039981
-0.025457
-0.008630
0.046228
0.024907
0.076243
0.142695
0.197747
0.227528
0.329967
0.421448
0.474563
0.518506
0.607017
0.690154
0.746303
0.832080
0.855351
0.913487
0.960330
0.981925
0.985129
0.978616
0.961549
0.921381
0.885051
0.818640
0.737330
0.701077
0.607177
0.512341
0.458110
0.344634
0.302600
0.229344
0.172013
0.114496
0.067932
0.027899
0.034019
0.031791
0.014304
0.062587
0.037104
0.092077
0.103063
0.141533
0.189102
0.212629
0.263121
0.280550
0.360148
0.417996
0.457731
0.475302
0.496110
0.561839
0.582360
0.596647
0.613571
0.604387
0.626273
0.627969
0.614895
0.626704
0.598653
0.602661
0.571911
0.558815
0.546972
0.520694
0.493560
0.483211
0.460685
0.446171
0.415787
0.423021
0.390230
0.352003
0.358655
0.352436
0.331319
0.341145
0.303144
0.330871
0.323625
0.288461
0.321446
0.312050
0.309080
0.292337
0.304013
0.302730
0.327019
0.300917
0.257887
0.283140
0.286568
0.305234
0.274490
0.285595
0.273487
0.276418
0.285687
0.279340
0.254617
0.287926
0.248354
0.261161
0.244463
0.209632
0.220304
0.223941
0.211008
0.218795
0.215403
0.235437
0.193991
0.186610
0.177667
0.179821
0.218278
0.190162
0.162788
0.156903
0.177282
0.148017
0.160608
0.118648
0.122346
0.143514
0.117225
0.135795
0.132848
0.094212
0.109481
0.097683
0.099527
0.109491
0.081538
0.074598
0.071746
0.070881
0.080402
0.072082
0.086000
0.049784
0.078476
0.054156
0.037208
0.040868
0.046262
0.033903
0.054238
0.022624
0.048115
0.027222
0.036270
0.037726
-0.008792
0.022516
-0.007622
0.049592
0.002500
0.022447
0.003735
0.015869
0.001921
0.042377
0.014997
0.028716
0.003389
0.007946
0.024139
0.034300
0.027334
0.028431
-0.005349
0.006246
0.010087
0.019519
-0.005207
-0.004395
0.031550
-0.015024
0.024910
0.004470
0.011951
-0.000371
-0.015232
0.003450
-0.024643
0.007650
-0.004932
0.014686
0.005543
0.010406
-0.007709
0.008515
-0.004425
0.004220
0.016124
-0.016717
0.019847
0.001507
0.027886
0.005625
0.005130
0.026649
0.000361
0.001690
-0.000891
-0.000274
0.027837
0.020895
0.019483
-0.011884
0.024280
-0.003867
0.025446
0.003295
0.010435
0.005722
-0.014154
-0.012446
-0.005027
0.013090
-0.003251
0.013962
-0.008379
-0.022770
-0.006589
0.018486
0.001822
-0.017845
-0.005662
-0.009233
-0.029877
0.008830
0.004752
0.016086
0.012515
0.018728
-0.017304
0.006093
-0.018450
-0.011448
-0.016122
-0.003541
-0.008564
0.010527
-0.008190
0.021145
0.011095
0.010948
-0.006901
-0.000421
0.006810
0.020290
-0.000114
0.015020
-0.002148
0.012447
0.024554
0.020265
0.004965
0.032388
0.053732
0.046042
0.047159
0.078335
0.060335
0.090837
0.089655
0.104653
0.095225
0.107966
0.105086
0.128883
0.117336
0.143582
0.161966
0.175702
0.145180
0.150440
0.154709
0.130219
0.133265
0.128751
0.129259
0.111954
0.120344
0.098607
0.105379
0.063042
0.057655
0.069353
0.032452
0.055404
0.046930
0.036681
0.003006
0.005612
-0.010295
-0.016403
0.000559
0.005987
0.007910
-0.008884
-0.025763
-0.018649
-0.030885
-0.035982
-0.024908
-0.050454
-0.025240
-0.029921
-0.073903
-0.032623
-0.036530
-0.023740
-0.033398
-0.014494
0.002161
0.029560
0.072961
0.118081
0.194455
0.237744
0.293379
0.360922
0.428093
0.528038
0.598509
0.689012
0.764851
0.803042
0.883272
0.923688
0.951150
0.996128
0.979937
0.991530
0.965721
0.918154
0.896007
0.784656
0.748706
0.660680
0.593123
0.497979
0.444962
0.352286
0.262148
0.211381
0.152422
0.099630
0.078147
0.068702
0.015335
0.026353
0.016688
0.034781
0.045135
0.097389
0.121214
0.159989
0.184548
0.249379
0.264468
0.333213
0.361331
0.393120
0.437992
0.462501
0.504271
0.528413
0.568289
0.574654
0.621845
0.600877
0.611814
0.630342
0.628394
0.606434
0.610203
0.598362
0.595615
0.551763
0.518427
0.509480
0.489759
0.505153
0.454211
0.424801
0.416641
0.420777
0.389297
0.386453
0.372037
0.361226
0.348215
0.345867
0.349419
0.316285
0.309198
0.283406
0.323846
0.308847
0.317118
0.285337
0.292292
0.303290
0.291933
0.305515
0.298497
0.272271
0.301421
0.274789
0.294950
0.295863
0.265265
0.270087
0.276453
0.251578
0.277175
0.257700
0.257856
0.248662
0.261554
0.240211
0.224097
0.207523
0.238877
0.217282
0.199390
0.230936
0.202174
0.218287
0.209106
0.178123
0.188401
0.167817
0.178311
0.145863
0.157291
0.109993
0.153355
0.169844
0.156108
0.133168
0.124170
0.116572
0.124280
0.146063
0.111857
0.112017
0.090775
0.119176
0.080406
0.075969
0.095326
0.083233
0.061032
0.072879
0.067727
0.079301
0.057395
0.051791
0.060973
0.058082
0.031797
0.041252
0.089367
0.005179
0.066113
0.025959
0.021623
0.025580
0.003165
0.030876
0.006108
-0.009995
0.041779
0.017480
0.040355
0.012533
-0.005356
0.010335
-0.007759
-0.003648
0.003096
-0.001365
0.010768
-0.014718
-0.001053
0.027618
0.005937
-0.002419
0.002892
0.015872
0.038012
0.006811
0.010325
0.001727
0.001980
-0.024971
-0.008568
-0.005666
-0.013251
0.014097
-0.001077
-0.001009
0.009937
-0.000147
0.001555
-0.007004
-0.003775
-0.007719
-0.006138
0.002283
-0.001594
-0.013782
0.015719
0.004968
-0.025521
-0.013403
0.019188
-0.003567
0.006400
0.004837
-0.002962
0.019138
-0.005406
0.009774
0.011454
0.004237
-0.013476
0.007937
-0.004277
0.012164
0.016571
0.024502
-0.004198
0.001709
0.004409
0.002940
-0.003827
0.020836
0.023259
0.002941
0.006423
0.000502
0.031045
-0.010084
-0.002176
-0.000546
-0.010586
-0.035947
-0.008046
-0.033505
0.014896
0.016831
0.012134
-0.014569
0.008561
-0.016093
-0.005971
-0.022949
-0.019473
-0.003817
0.020521
-0.000290
-0.014479
-0.018917
0.013887
0.012456
0.000880
0.023428
-0.011163
0.021178
0.029316
0.029488
0.026619
0.028390
0.034466
0.040219
0.049522
0.054597
0.037381
0.094685
0.073158
0.069360
0.089652
0.129603
0.102831
0.134900
0.123786
0.138168
0.158249
0.159603
0.127681
0.143894
0.145098
0.166656
0.181308
0.150387
0.128703
0.146006
0.114868
0.129169
0.093904
0.088545
0.082595
0.073762
0.051484
0.075311
0.073077
0.037840
0.041461
0.049029
0.015282
0.027661
0.045833
0.007565
0.001301
0.011538
-0.020900
-0.011533
0.018742
-0.007669
-0.042810
-0.039744
-0.030000
-0.043118
-0.064330
-0.052833
-0.045371
-0.056483
-0.021456
-0.046834
-0.041903
0.025708
0.028036
0.072123
0.087856
0.134010
0.185459
0.236490
0.285373
0.367603
0.445227
0.513340
0.571413
0.666970
0.763049
0.825300
0.883367
0.916632
0.948494
0.952341
0.968480
0.988995
0.957117
0.937343
0.867034
0.825563
0.761660
0.659594
0.610392
0.526621
0.440365
0.339280
0.293470
0.220422
0.187051
0.119275
0.053875
0.050530
0.046864
-0.002311
0.018573
0.036836
0.068194
0.079721
0.107829
0.157344
0.198278
0.220262
0.251502
0.294680
0.353016
0.395529
0.424577
0.467696
0.493349
0.511114
0.578098
0.595225
0.602892
0.613654
0.607269
0.627156
0.618309
0.613580
0.609627
0.596003
0.572862
0.534256
0.524501
0.503365
0.481590
0.481361
0.472095
0.432997
0.423489
0.374040
0.388370
0.379317
0.375134
0.317428
0.374653
0.336777
0.310580
0.335526
0.306654
0.332224
0.330396
0.315545
0.318817
0.308045
0.305615
0.319727
0.299169
0.312230
0.305085
0.279280
0.317237
0.273368
0.291243
0.265855
0.297071
0.297617
0.259525
0.271454
0.285758
0.262084
0.228364
0.229986
0.237010
0.271963
0.240408
0.228293
0.229471
0.213606
0.205269
0.196339
0.217639
0.198215
0.174858
0.205686
0.172580
0.193817
0.196217
0.187164
0.163417
0.139656
0.153447
0.166455
0.107144
0.138855
0.112113
0.116997
0.111451
0.100282
0.080473
0.112792
0.090005
0.135560
0.085569
0.091397
0.054158
0.067088
0.076626
0.070721
0.045933
0.065124
0.051110
0.073466
0.021009
0.021861
0.041795
0.062031
0.034563
0.044902
0.040948
0.034949
0.025688
0.022554
0.012958
0.045875
0.040919
0.045249
0.019564
0.028791
0.047167
0.022942
0.015993
-0.001543
0.000018
0.009505
0.015040
0.000958
-0.015765
0.008001
0.024696
-0.024033
0.033549
0.005888
0.000954
0.013521
-0.005782
0.004835
0.001728
0.007433
0.008066
-0.011045
