0.014610
0.011574
-0.019192
0.013291
0.016406
-0.001852
0.008936
-0.033683
0.002157
-0.022234
0.016495
0.007642
0.022496
0.035990
0.009474
0.005329
0.041897
0.036273
0.064506
0.062529
0.074916
0.082435
0.065987
0.116649
0.123416
0.105522
0.117374
0.129597
0.142119
0.143625
0.132072
0.154712
0.175533
0.138119
0.144270
0.126611
0.138201
0.144504
0.094528
0.104666
0.085483
0.100076
0.095504
0.087922
0.069841
0.063847
0.023349
0.046582
0.021792
0.028759
0.031841
0.015776
0.021743
0.006349
0.007456
-0.006544
-0.012235
-0.018524
0.013455
-0.020238
-0.009705
-0.033890
-0.054281
-0.051119
-0.022261
-0.074115
-0.020463
-0.051770
-0.019588
-0.043793
-0.053977
-0.008131
0.006709
0.009130
0.026536
0.058889
0.098029
0.168343
0.201212
0.235879
0.283701
0.383531
0.403627
0.495975
0.550682
0.638074
0.686066
0.756868
0.796519
0.837968
0.889865
0.946589
0.978046
0.956208
1.015668
0.982360
1.003706
0.934232
0.921660
0.875948
0.841627
0.766916
0.680052
0.645175
0.581789
0.523675
0.446428
0.373262
0.316749
0.241464
0.215698
0.173647
0.138851
0.109155
0.067883
0.073273
0.069704
0.085312
0.094574
0.095250
0.100088
0.184607
0.232491
0.226603
0.278825
0.332036
0.382106
0.429061
0.453384
0.513342
0.561188
0.597642
0.624549
0.640961
0.693396
0.735365
0.732782
0.780450
0.773849
0.799119
0.783654
0.776835
0.788800
0.756445
0.751827
0.742920
0.741793
0.716099
0.703248
0.695496
0.662174
0.637326
0.597610
0.566255
0.549880
0.535215
0.506389
0.457564
0.474267
0.438754
0.409207
0.393030
0.382985
0.366491
0.350844
0.341750
0.343117
0.334900
0.300668
0.288641
0.301571
0.285927
0.247521
0.266475
0.244245
0.261596
0.272644
0.278529
0.266402
0.238488
0.213963
0.229999
0.202462
0.233098
0.220577
0.195625
0.213496
0.213553
0.214101
0.204522
0.177975
0.185201
0.158596
0.136975
0.174019
0.156064
0.120007
0.142310
0.166421
0.165278
0.101591
0.110813
0.115914
0.100709
0.102429
0.099288
0.086920
0.063944
0.085788
0.101536
0.079215
0.108559
0.067017
0.076957
0.069803
0.055843
0.059667
0.057945
0.036911
0.045524
0.031889
0.033031
0.031532
0.022323
0.044660
0.029945
0.009198
0.036469
0.024309
0.053373
0.033449
0.017647
0.045529
0.017828
0.026675
-0.008669
-0.023613
-0.001331
-0.014096
-0.010794
0.004522
0.014139
0.012471
0.004482
0.035912
0.017263
0.007664
0.012829
-0.020468
-0.014962
-0.020522
-0.014490
0.005255
0.006855
0.014839
0.001398
0.000699
-0.000789
0.019709
-0.004448
0.028478
-0.013682
-0.013541
-0.023788
0.001031
0.016678
-0.015733
-0.008650
0.005856
0.003001
0.002351
-0.001656
-0.033223
-0.024688
0.005148
-0.016144
0.017455
0.011171
0.011092
-0.002404
0.012597
0.035907
-0.013743
-0.012078
0.005926
-0.017048
0.001485
0.002355
0.026401
-0.011481
0.022115
0.001289
0.010653
0.008474
-0.019629
0.010399
-0.004080
0.002312
-0.002696
0.015224
-0.018244
0.025400
-0.025459
-0.044091
0.000926
0.012696
0.018114
-0.007334
0.005197
0.003276
0.002722
-0.010711
-0.011878
0.004864
0.024825
-0.014361
-0.020364
0.012021
0.003285
0.004358
0.009455
0.030691
-0.001768
0.003961
0.020519
0.004328
-0.011532
-0.002075
-0.001465
0.025902
0.022338
0.005281
0.012783
0.011967
0.029240
0.055065
0.036573
0.034160
0.054184
0.092265
0.072854
0.084079
0.075988
0.096532
0.134209
0.100965
0.146177
0.139102
0.161019
0.158338
0.143651
0.140547
0.147276
0.163149
0.146873
0.141897
0.128745
0.102982
0.140770
0.116530
0.100364
0.098240
0.086964
0.068410
0.054767
0.055789
0.020536
0.046164
0.049199
0.077787
0.043863
-0.018706
0.036520
-0.016008
0.019144
-0.015541
-0.002692
-0.005058
-0.028908
-0.033975
-0.046708
-0.033544
-0.070487
-0.041952
-0.040871
-0.043920
-0.036141
-0.056094
-0.061668
-0.039851
-0.028052
-0.019320
0.035668
0.023176
0.040355
0.084977
0.125664
0.149747
0.181139
0.242197
0.302839
0.344702
0.415429
0.477673
0.571738
0.611815
0.679520
0.740970
0.786711
0.859822
0.892493
0.948209
0.959729
0.979422
1.010097
1.019032
1.013041
0.983654
0.927121
0.893340
0.803738
0.771676
0.716207
0.673149
0.570989
0.516590
0.442130
0.348116
0.298806
0.241256
0.232103
0.191683
0.123647
0.126216
0.099080
0.099316
0.088330
0.092255
0.087969
0.118285
0.148860
0.168530
0.196995
0.230902
0.278532
0.284007
0.375639
0.400214
0.455438
0.512599
0.541542
0.606039
0.591387
0.669445
0.698303
0.736251
0.740943
0.760988
0.772138
0.758164
0.776022
0.819985
0.791006
0.792748
0.778294
0.782214
0.719749
0.734494
0.714678
0.685861
0.659259
0.617682
0.598166
0.576609
0.553384
0.545321
0.490660
0.471281
0.470633
0.442910
0.399318
0.400805
0.395461
0.376879
0.380630
0.360867
0.299581
0.325626
0.307738
0.298585
0.312782
0.278698
0.287289
0.272536
0.262835
0.273214
0.262101
0.285336
0.224508
0.222130
0.226264
0.232580
0.200322
0.219778
0.210023
0.216797
0.202898
0.177280
0.212597
0.166818
0.162620
0.163544
0.157435
0.157543
0.122009
0.155519
0.157223
0.143823
0.129539
0.119600
0.117305
0.150080
0.111442
0.111984
0.083777
0.096539
0.105465
0.084513
0.085302
0.084303
0.063348
0.083752
0.077768
0.075805
0.059146
0.078540
0.025585
0.037573
0.085096
0.064209
0.052271
0.035290
0.041289
0.042918
0.021435
0.005930
0.035663
0.029669
0.046456
0.018528
0.036841
0.034970
0.035871
0.013974
0.038626
0.011400
0.007220
0.015674
0.023340
-0.029334
-0.019071
-0.005080
0.004144
0.000473
-0.000306
0.011915
0.018333
-0.009616
0.036478
-0.002554
0.003751
0.011664
-0.015824
0.007387
0.016076
-0.002955
-0.051263
-0.026951
-0.010524
-0.006415
-0.014469
-0.015845
0.021943
-0.008183
-0.000030
-0.004448
-0.029752
0.027126
0.031365
0.019566
0.017507
-0.017001
-0.003781
0.016468
0.001223
-0.013093
-0.020481
-0.000060
0.003188
-0.010814
-0.004957
-0.008696
-0.012099
-0.001561
-0.021357
0.019779
0.005314
-0.008483
0.013141
0.006041
0.003736
-0.026347
0.004926
-0.001101
0.006182
-0.008738
-0.021756
-0.000165
0.009478
-0.014271
-0.017964
-0.010998
0.001788
-0.000354
-0.009865
0.001111
-0.006688
-0.006294
-0.011143
-0.020821
0.002164
-0.013412
-0.003837
0.008956
0.014655
-0.001389
-0.013805
-0.000379
-0.008153
0.014635
0.001216
0.007808
0.003919
0.019297
0.014990
-0.001000
0.016454
-0.008550
0.023188
0.021627
0.025131
0.013817
-0.031100
-0.014025
0.030482
0.044651
0.051362
0.071576
0.056135
0.050583
0.081584
0.075688
0.091263
0.097964
0.126800
0.098999
0.138452
0.122645
0.167581
0.139803
0.136071
0.130006
0.176075
0.160523
0.129632
0.139023
0.131734
0.131199
0.140522
0.088732
0.102450
0.113242
0.084923
0.095526
0.078462
0.073777
0.046996
0.056568
0.030488
0.011471
0.006185
0.021051
0.014262
-0.005503
-0.029529
0.014362
0.002784
-0.016977
-0.010297
-0.016807
-0.010452
-0.047372
-0.040563
-0.041230
-0.020316
-0.044908
-0.029051
-0.035885
-0.066342
-0.049882
-0.037387
0.002060
-0.012854
0.028990
0.046903
0.075582
0.107770
0.145586
0.204400
0.240221
0.289125
0.366633
0.412540
0.486370
0.523153
0.594046
0.694252
0.739155
0.810329
0.872875
0.890611
0.929490
0.974163
0.981498
0.995973
0.985461
0.975180
0.944155
0.926260
0.855882
0.812191
0.793993
0.702788
0.647922
0.573510
0.524635
0.421444
0.376362
0.311683
0.288830
0.228922
0.158636
0.112491
0.118187
0.076197
0.072705
0.084213
0.084953
0.109721
0.123072
0.108242
0.174474
0.197540
0.241992
0.276234
0.308687
0.362083
0.403416
0.457218
0.496770
0.560673
0.553190
0.590856
0.646723
0.693891
0.727730
0.732952
0.740562
0.798278
0.764324
0.806753
0.801958
0.787904
0.792023
0.766060
0.739555
0.740496
0.753554
0.678130
0.675167
0.628653
0.598638
0.612385
0.571557
0.573109
0.534731
0.508474
0.472078
0.427729
0.418483
0.428948
0.436466
0.379239
0.374316
0.357362
0.367587
0.322587
0.314470
0.323055
0.300549
0.307425
0.300417
0.281295
0.270768
0.271490
0.253630
0.255083
0.233099
0.256167
0.237498
0.222670
0.216730
0.213335
0.213329
0.203240
0.177447
0.200792
0.210447
0.195442
0.194997
0.182481
0.155810
0.164175
0.162891
0.147954
0.173875
0.127785
0.114975
0.116321
0.138412
0.113158
0.107819
0.118480
0.076331
0.112331
0.092760
0.075316
0.094092
0.074641
0.118190
0.072493
0.071525
0.076235
0.085956
0.050951
0.076121
0.053849
0.030853
0.069388
0.035732
0.039454
0.037370
0.014494
0.076215
0.021996
0.019631
0.022185
0.018003
0.033885
0.005803
0.051189
0.026112
0.016465
-0.012114
0.012892
0.021603
-0.001729
0.022342
-0.001416
0.021943
0.027823
-0.024348
0.042847
-0.010106
-0.003890
0.008286
0.005160
-0.007619
0.032311
-0.019681
-0.017748
-0.003615
0.020214
-0.027855
0.010895
-0.001454
-0.020378
0.004237
0.021254
0.016673
0.006491
0.027939
-0.003647
-0.015923
-0.018662
-0.007375
-0.040641
-0.015404
0.008063
0.020472
0.000389
0.000884
-0.004185
0.004766
0.002494
-0.027502
0.006054
0.014317
-0.034724
0.008808
0.013118
0.036744
-0.008439
0.012037
0.022556
0.000772
0.008298
0.009492
0.011911
-0.003877
-0.006896
0.019869
-0.002575
0.010386
0.009973
-0.010162
-0.013461
0.015125
0.020122
-0.014497
-0.008559
-0.025793
0.028464
0.010216
0.001137
-0.013417
0.004640
0.005812
0.010857
0.010681
0.028708
0.001690
-0.009943
-0.000081
0.001358
-0.013811
0.015602
0.003840
0.000114
-0.005017
0.000566
0.022476
-0.008610
-0.009662
-0.003892
0.017042
0.003550
0.006571
0.022773
-0.002156
0.030515
0.003229
0.001251
0.040246
0.018743
0.020896
0.027998
0.058530
0.049679
0.047569
0.076102
0.085617
0.112414
0.065299
0.098602
0.097816
0.129890
0.127228
0.148851
0.139350
0.148947
0.140745
0.151237
0.143509
0.164060
0.128363
0.143585
0.127623
0.144127
0.140923
0.103423
0.126809
0.094459
0.079543
0.104210
0.070265
0.044328
0.039256
0.049585
0.037418
0.014886
0.014488
-0.014025
0.016861
-0.009272
0.006874
-0.040073
-0.019629
-0.036445
0.001069
-0.014060
-0.065244
-0.033815
-0.035319
-0.050897
-0.075221
-0.051211
-0.064819
-0.045770
-0.029506
-0.021222
-0.017130
0.037959
0.040077
0.018001
0.058821
0.089842
0.152673
0.191606
0.215699
0.295755
0.338312
0.398140
0.475724
0.524136
0.637564
0.651314
0.740473
0.820085
0.830557
0.897475
0.983958
0.989608
0.979487
1.013294
1.004270
0.989668
0.948382
0.917567
0.877052
0.816560
0.787035
0.695403
0.640668
0.591595
0.497444
0.457733
0.368090
0.307633
0.250374
0.216810
0.175197
0.118054
0.127473
0.082530
0.074063
0.073200
0.068692
0.113042
0.099489
0.118997
0.177863
0.203330
0.229410
0.275462
0.319725
0.385193
0.435066
0.456406
0.486330
0.571181
0.595359
0.630846
0.677089
0.660469
0.701820
0.740721
0.767179
0.789413
0.770082
0.805769
0.816619
0.771209
0.765096
0.767473
0.768266
0.736688
0.735146
0.689926
0.689464
0.648270
0.610010
0.606850
0.569325
0.542338
0.485969
0.502257
0.465215
0.472842
0.443450
0.443865
0.412643
0.399869
0.374829
0.318435
0.337241
0.337331
0.319485
0.324155
0.325912
0.293349
0.309096
0.279793
0.253209
0.262317
0.268762
0.252269
0.250209
0.246765
0.221525
0.246874
0.242176
0.221172
0.224695
0.204002
0.212373
0.211961
0.164338
0.164747
0.176615
0.179785
0.158713
0.166989
0.156999
0.147183
0.151468
0.145980
0.116876
0.127706
0.125835
0.131027
0.104290
0.116048
0.079679
0.100857
0.096379
0.104513
0.077522
0.040161
0.067986
0.082748
0.089169
0.085976
0.082339
0.093224
0.084084
0.026766
0.058582
0.057364
0.053987
0.027102
0.041773
0.059371
0.028580
0.034257
0.041011
0.004406
0.009945
0.049274
0.014247
0.005204
0.011328
0.012403
0.006588
0.006440
0.033471
0.019427
0.027908
0.022074
0.005780
0.014953
-0.000711
0.000022
-0.002529
0.009673
0.016985
-0.003822
-0.021023
0.001956
0.016133
-0.005445
0.010780
0.010667
0.012994
-0.032135
-0.006696
0.028811
0.000299
0.006096
0.027622
0.033215
-0.005070
-0.025038
0.004005
0.019808
-0.016798
-0.002509
0.013008
-0.027159
-0.004315
0.019077
0.000489
0.026844
0.005155
-0.008618
0.018405
-0.005217
-0.027723
-0.024853
-0.022201
0.023724
0.008168
0.021408
-0.014512
0.005315
0.001251
-0.003872
0.000165
0.003615
-0.001673
0.014274
-0.002296
-0.001843
0.003706
-0.007676
0.013407
0.041088
0.025396
-0.010105
0.003524
-0.007592
0.006559
0.010927
0.016917
0.003870
-0.007709
0.016644
-0.002118
-0.002276
0.014429
0.010071
-0.044737
-0.027637
-0.000655
-0.001739
-0.011007
-0.000698
0.004592
0.008722
-0.003863
-0.014939
0.037992
0.000689
0.016164
-0.012628
-0.012706
0.018991
0.012076
-0.000950
0.012653
0.017589
0.041487
0.001793
0.036916
0.026957
0.050798
0.043165
0.050583
0.054122
0.038708
0.066667
0.041855
0.078838
0.101104
0.106822
0.136430
0.116630
0.122901
0.134955
0.135110
0.180412
0.144519
0.152184
0.159526
0.138298
0.161043
0.135403
0.153108
0.148511
0.110107
0.115393
0.111310
0.100702
0.077645
0.097202
0.059696
0.064438
0.029648
0.045262
0.040933
0.058918
0.042807
0.017103
0.010701
0.015057
0.010657
0.011696
-0.015932
-0.022000
-0.041429
-0.033008
-0.040013
-0.041679
-0.060416
-0.051428
-0.048659
-0.041207
-0.024128
-0.034951
-0.058946
-0.029418
0.000892
0.003996
0.015972
0.013526
0.056836
0.108764
0.148833
0.186294
0.283340
0.292206
0.357229
0.464855
0.487434
0.568693
0.605092
0.675605
0.760690
0.783436
0.855529
0.921003
0.923154
0.976401
1.000463
0.977295
0.987464
0.992423
0.951986
0.922937
0.870886
0.830831
0.756182
0.695342
0.654972
0.586602
0.518804
0.430783
0.388361
0.318554
0.292353
0.209827
0.155407
0.134409
0.113292
0.090701
0.079643
0.060706
0.076561
0.113796
0.092715
0.129676
0.171267
0.222045
0.237073
0.272450
0.315847
0.359857
0.411855
0.447922
0.498461
0.539743
0.588637
0.646734
0.645469
0.701769
0.726621
0.741513
0.729072
0.754325
0.784734
0.781441
0.794041
0.789605
0.782998
0.768649
0.761382
0.752122
0.716688
0.696217
0.673410
0.665531
0.625492
0.584636
0.563619
0.542362
0.527098
0.517797
0.480911
0.441454
0.445079
0.442919
0.415722
0.394085
0.368487
0.360649
0.347442
0.330515
0.346023
0.285113
0.292262
0.311162
0.274687
0.270245
0.294057
0.279756
0.266072
0.246941
0.242632
0.223645
0.234702
0.220279
0.233146
0.219277
0.223898
0.235457
0.208422
0.192476
0.180502
0.170244
0.173145
0.185214
0.172676
0.162669
0.175809
0.151416
0.147333
0.157154
0.154718
0.138557
0.126021
0.137017
0.108389
0.110235
0.095107
0.126192
0.086383
0.084698
0.089399
0.100835
0.098745
0.070619
0.094122
0.078325
0.074319
0.058770
0.057466
0.077689
0.061020
0.058428
0.056059
0.030167
0.044045
0.040065
0.061027
0.033955
0.015033
0.028763
0.037024
0.025729
0.025006
0.019929
0.020067
0.005847
-0.003212
0.019585
-0.002035
0.018445
0.002186
0.005969
0.009902
0.009550
-0.023591
0.009934
0.023679
0.003127
0.005176
0.009388
0.008530
0.028053
0.019068
-0.009851
-0.038938
0.001949
0.005217
-0.014173
0.019692
-0.019845
0.008801
-0.003059
0.004651
0.010761
-0.001489
0.000554
0.007000
-0.003049
-0.003456
0.003666
0.005084
-0.011730
0.004906
0.007023
0.003524
-0.000118
0.017197
-0.000050
-0.024563
0.006275
0.001792
-0.010321
0.012277
-0.001461
0.006508
0.006248
0.012162
-0.015103
0.003054
-0.019090
0.040659
0.009513
0.005034
0.004314
-0.007438
0.024348
0.002981
0.029345
-0.016802
-0.009142
-0.018191
0.011762
-0.014705
-0.022214
0.003971
-0.018545
-0.025551
-0.025112
-0.009882
-0.020877
-0.004121
-0.018067
0.003692
-0.008401
-0.013505
0.010469
-0.008538
0.020454
0.002883
0.000588
0.003784
0.019621
0.003767
-0.032363
-0.004168
-0.020127
-0.001782
-0.005867
0.013870
0.001258
-0.025481
0.018597
0.016527
0.004196
0.016004
0.050057
0.015839
0.039915
0.034073
0.030521
0.050520
0.055769
0.073265
0.101287
0.096590
0.072017
0.095348
0.110215
0.122422
0.110579
0.112674
0.137161
0.159125
0.160321
0.181217
0.158636
0.135987
0.104107
0.142704
0.134847
0.133478
0.113018
0.136057
0.105185
0.128170
0.063125
0.100160
0.062614
0.063483
0.028791
0.050854
0.018238
0.040833
0.029397
0.018268
0.026072
0.033910
-0.002857
-0.004322
0.039368
-0.013284
-0.021842
-0.002576
-0.049339
-0.044311
-0.048946
-0.026616
-0.053164
-0.018641
-0.036641
-0.028226
-0.043708
-0.047219
-0.036789
-0.018698
-0.008535
0.002857
0.031188
0.058074
0.093540
0.125954
0.180068
0.227199
0.321806
0.383248
0.427673
0.507484
0.548882
0.616064
0.691580
0.742463
0.788066
0.855227
0.920418
0.942824
0.970556
0.997240
0.997954
1.006517
0.990548
0.942725
0.906593
0.899515
0.827379
0.788704
0.700303
0.627961
0.596866
0.504181
0.438978
0.376965
0.324884
0.268654
0.218863
0.179054
0.155802
0.133600
0.072872
0.072891
0.058640
0.097928
0.106819
0.113541
0.135117
0.135848
0.195602
0.241506
0.280980
0.316996
0.374941
0.412639
0.462168
0.514801
0.543509
0.577605
0.594045
0.662594
0.695257
0.743945
0.720216
0.742523
0.769589
0.791295
0.752198
0.823369
0.781957
0.758665
0.775870
0.736990
0.731923
0.698516
0.675749
0.673450
0.637623
0.628201
0.600681
0.559594
0.559415
0.519660
0.484481
0.487490
0.438111
0.485744
0.408111
0.402225
0.391580
0.384588
0.364182
0.359602
0.359793
0.330994
0.308610
0.328493
0.299394
0.296381
0.293089
0.286312
0.243307
0.243125
0.274997
0.260478
0.228179
0.243484
0.229092
0.246916
0.232979
0.236341
0.230088
0.198171
0.209521
0.214004
0.190395
0.159596
0.201565
0.190883
0.160810
0.156927
0.157968
0.132206
0.122794
0.128213
0.136539
0.117808
0.145419
0.129376
0.140257
0.099095
0.096639
0.094009
0.068524
0.077669
0.100677
0.100764
0.085732
0.074142
0.092292
0.075633
0.055343
0.077480
0.050900
0.050897
0.039560
0.046528
0.052100
0.027101
0.047546
0.032707
0.058919
0.037612
0.042026
0.009470
0.038338
0.007288
0.017606
0.027827
0.014681
0.012586
-0.000715
0.005252
-0.003355
0.035386
-0.014775
-0.021618
0.020138
0.038530
0.044619
0.016231
-0.008857
-0.015641
0.002396
0.020783
0.013595
0.003997
-0.014313
0.016195
-0.003969
0.025430
0.014586
0.015742
0.031164
-0.004588
0.003352
0.014915
0.011301
0.001905
-0.024431
-0.014752
0.012900
0.030758
-0.000101
0.003312
0.009656
0.003737
-0.006395
0.006920
0.003272
0.013692
0.016484
0.010688
0.008402
0.004651
-0.012951
-0.013550
0.011386
0.016302
-0.009180
-0.026063
0.013784
-0.006904
0.009165
-0.013156
0.008756
0.005306
-0.001038
-0.023986
0.006799
0.031780
0.015006
-0.013346
0.002171
0.020825
0.001909
-0.035129
-0.002871
-0.021702
0.000023
0.012511
-0.020812
-0.013905
-0.003068
-0.013128
-0.020476
-0.014153
0.006601
-0.023576
-0.010591
-0.001934
0.004539
-0.003171
-0.007486
-0.018992
-0.006590
0.001701
0.003579
-0.005218
-0.005838
-0.007494
-0.001952
-0.005941
0.015768
0.003985
-0.020101
0.024212
0.010978
0.027977
0.025192
0.029324
0.024669
0.039579
0.030523
0.038204
0.069261
0.051746
0.063658
0.109750
0.097196
0.085440
0.110995
0.138649
0.114840
0.133962
0.139506
0.160456
0.127126
0.120950
0.136005
0.127069
0.140257
0.145486
0.146328
0.103359
0.109481
0.107925
0.097692
0.105214
0.103123
0.083449
0.072819
0.078067
0.059601
0.033899
0.028284
0.021869
0.036310
0.017494
0.035656
0.000545
0.011753
-0.006713
-0.001250
-0.039439
-0.057539
-0.015700
-0.034407
-0.004238
-0.049543
-0.047342
-0.046334
-0.022351
-0.045048
-0.040394
-0.037929
-0.035950
-0.023931
-0.039965
-0.003848
0.009989
0.055347
0.062587
0.139365
0.138755
0.196588
0.242535
0.302131
0.352964
0.423158
0.501185
0.549747
0.596752
0.685884
0.750565
0.799998
0.864075
0.918741
0.941340
0.975699
1.005184
0.998458
0.978928
0.988270
0.957773
0.916509
0.862274
0.840032
0.786081
0.713496
0.652683
0.575967
0.509940
0.438996
0.391714
0.333082
0.253228
0.223874
0.184522
0.125532
0.117979
0.085419
0.045189
0.087835
0.075240
0.083802
0.128019
0.120663
0.175381
0.185142
0.249669
0.282845
0.329892
0.360248
0.388691
0.485034
0.481260
0.528393
0.573789
0.628399
0.648370
0.689308
0.718056
0.718848
0.732299
0.773075
0.801633
0.800706
0.776109
0.769583
0.815286
0.769415
0.749864
0.734141
0.690236
0.696131
0.676323
0.632484
0.608110
0.625697
0.580167
0.538050
0.541867
0.500954
0.485232
0.425999
0.459254
0.397015
0.390563
0.379454
0.389752
0.352060
0.329178
0.328957
0.330732
0.335787
0.322827
0.301087
0.293815
0.270187
0.288535
0.274270
0.287444
0.255700
0.244463
0.254138
0.250843
0.225164
0.226314
0.234591
0.215483
0.216476
0.208276
0.224302
0.186406
0.177438
0.181224
0.171752
0.173383
0.150990
0.162950
0.124742
0.140216
0.123397
0.136205
0.165278
0.114621
0.127326
0.120492
0.096548
0.112456
0.114392
0.094138
0.081521
0.105673
0.080621
0.097462
0.079350
0.060278
0.113247
0.069280
0.037275
0.053834
0.079044
0.064822
0.051179
0.078675
0.041111
0.057235
0.019977
0.030513
0.012262
0.016367
0.030924
0.019031
0.023776
-0.007698
0.041787
0.023560
0.023844
0.013192
0.026437
-0.009140
0.026813
-0.012363
-0.006905
0.017781
0.002055
0.042399
-0.009277
0.017938
0.018080
0.022666
-0.003723
0.007144
0.020018
-0.014305
-0.002760
0.005474
-0.003994
0.009393
-0.018235
-0.000263
-0.000038
-0.002919
0.005520
0.007607
-0.016397
0.027470
0.002732
-0.007060
0.002171
0.021432
0.017063
0.000578
0.019003
0.002819
-0.006176
-0.003924
-0.002203
0.018234
-0.040796
0.007012
-0.000566
0.013557
0.017136
0.002248
0.001524
0.006755
-0.003946
-0.013319
-0.003711
-0.005718
0.004518
-0.001564
-0.012975
0.002300
0.008275
-0.000634
0.003453
0.010024
-0.006557
-0.008629
0.004148
-0.014581
0.019764
0.007333
-0.014640
-0.027251
-0.006217
0.016784
0.002031
0.027529
0.007185
-0.012875
-0.010915
0.021912
0.011150
-0.016590
-0.013997
-0.028338
-0.022630
0.015169
-0.014047
0.014390
0.012837
0.006801
0.011541
-0.017372
0.009355
-0.002754
0.031578
-0.010640
0.031719
0.033947
0.012044
0.017817
0.014064
0.027437
0.006510
0.024728
0.028421
0.035136
0.034870
0.031965
0.030437
0.092859
0.074965
0.082848
0.069856
0.123895
0.087952
0.118381
0.101862
0.120975
0.140527
0.133457
0.131752
0.129732
0.131923
0.172471
0.173629
0.167928
0.155366
0.135108
0.117615
0.120845
0.117719
0.113277
0.099986
0.091612
0.074834
0.050312
0.065533
0.056007
0.039487
0.029174
0.016045
0.026743
0.030482
-0.006831
0.003872
-0.039607
-0.014178
-0.031273
-0.009978
-0.019872
-0.037482
-0.034662
-0.052724
-0.046084
-0.056574
-0.049773
-0.031523
-0.043981
-0.042306
-0.018117
-0.027354
0.015851
-0.022141
0.009689
0.036107
0.084546
0.101315
0.138674
0.187901
0.246739
0.299006
0.376553
0.413399
0.470920
0.533915
0.617507
0.686959
0.741076
0.789125
0.837083
0.917540
0.916903
0.978134
0.945101
0.980282
0.952945
0.989648
0.952682
0.951462
0.885453
0.828565
0.779104
0.691663
0.636308
0.572198
0.510610
0.466675
0.379608
0.310477
0.260213
0.199124
0.156696
0.135082
0.123774
0.095337
0.077006
0.089994
0.084510
0.087301
0.114451
0.152287
0.153394
0.160255
0.242575
0.310216
0.292306
0.375980
0.394673
0.434576
0.513405
0.557097
0.592070
0.626690
0.651796
0.678968
0.745865
0.721807
0.773839
0.760698
0.764728
0.799671
0.817356
0.791633
0.799305
0.767682
0.756566
0.746708
0.724417
0.716776
0.658409
0.646505
0.646106
0.584047
0.593031
0.546546
0.549462
0.496817
0.470138
0.469126
0.432677
0.410482
0.427408
0.377937
0.350455
0.341401
0.346365
0.343842
0.333409
0.310381
0.301447
0.284329
0.304670
0.301737
0.280672
0.284903
0.274043
0.238636
0.244413
0.276749
0.236881
0.225058
0.245080
0.242343
0.219893
0.243577
0.219021
0.199888
0.201671
0.175844
0.188860
0.153457
0.166794
0.174055
0.165467
0.158279
0.165558
0.159767
0.179664
0.111762
0.161664
0.112038
0.103119
0.129958
0.095106
0.132764
0.092377
0.112346
0.095568
0.094218
0.096254
0.061993
0.076888
0.058804
0.075985
0.054256
0.065480
0.049760
0.030638
0.039423
0.059462
0.065146
0.040614
0.063759
0.037352
0.026708
0.033370
0.067527
0.025009
-0.000655
0.048910
0.020707
0.031622
0.036032
0.001045
0.007377
-0.006993
0.036470
0.004074
0.019259
0.013737
0.010447
0.034508
0.009392
0.005095
-0.002851
-0.000892
-0.022157
-0.002287
-0.004416
0.054717
0.026129
-0.010218
0.007497
-0.007905
0.007214
-0.001594
0.002415
0.010421
0.024322
-0.001263
-0.020818
-0.015942
0.007239
0.010491
0.003402
0.005434
-0.010311
-0.002638
0.002670
0.004282
0.037836
0.007131
0.012789
-0.013215
-0.012398
0.002411
-0.040817
0.001538
-0.011714
0.019604
0.013798
-0.009611
-0.015937
0.009931
0.018790
-0.009193
0.029828
-0.011954
0.013592
-0.011084
-0.007848
0.008204
-0.008207
-0.004501
0.009509
-0.008664
-0.019994
0.018215
0.008821
-0.011415
0.017633
0.014774
-0.008824
0.026453
0.006203
-0.008555
0.016802
0.017791
-0.007237
-0.012435
0.032406
-0.002619
0.004683
0.019863
-0.040216
0.011184
0.021129
0.011659
-0.003896
0.016330
0.006262
-0.009114
0.000993
0.005777
0.013677
0.001663
0.020992
-0.017699
0.007627
-0.012479
0.021189
0.010156
0.010964
0.007281
0.023436
0.050668
0.042717
0.049097
0.092929
0.059795
0.060203
0.090883
0.095191
0.101389
0.100510
0.136874
0.112571
0.121420
0.132221
0.161825
0.154568
0.154855
0.130182
0.179751
0.165705
0.143497
0.141539
0.121237
0.139733
0.106623
0.103483
0.108294
0.091047
0.089297
0.093693
0.061620
0.050287
0.037812
0.002263
0.029688
0.017117
0.036682
0.004076
-0.005040
0.008268
-0.002087
0.006464
-0.002102
-0.022634
-0.026042
-0.020974
-0.040813
-0.043424
-0.051566
-0.051104
-0.040218
-0.043466
-0.050084
-0.016486
-0.067523
-0.025170
-0.036921
-0.010821
0.035988
0.042185
0.061020
0.110276
0.147508
0.190896
0.238865
0.287861
0.360922
0.417273
0.467895
0.573199
0.618957
0.688887
0.731141
0.781708
0.844983
0.895568
0.949682
0.970897
0.994819
1.019089
0.966863
0.949149
0.946637
0.940345
0.913599
0.833255
0.754345
0.725346
0.635916
0.583327
0.484411
0.445904
0.400348
0.321174
0.263357
0.207745
0.163442
0.144320
0.100915
0.066742
0.078353
0.078333
0.096605
0.084727
0.109159
0.129812
0.140908
0.205773
0.266748
0.251369
0.325016
0.352182
0.411200
0.467042
0.500484
0.527571
0.586368
0.609537
0.662880
0.701811
0.722984
0.746246
0.779204
0.782503
0.800643
0.797675
0.775030
0.782944
0.769668
0.774559
0.743518
0.726767
0.711551
0.675345
0.682510
0.667829
0.620588
0.597461
0.573802
0.549866
0.525364
0.502067
0.467311
0.448011
0.465082
0.399050
0.389389
0.408778
0.367530
0.371944
0.338623
0.362986
0.346463
0.319720
0.318127
0.306668
0.298973
0.273101
0.294882
0.279289
0.229393
0.276077
0.241334
0.252459
0.220950
0.237163
0.258432
0.230411
0.201096
0.220997
0.215857
0.219517
0.179904
0.187838
0.211794
0.182408
0.171342
0.191932
0.178673
0.158186
0.144029
0.126010
0.134058
0.159865
0.139407
0.133323
0.111911
0.118149
0.108550
0.108907
0.105914
0.090146
0.101461
0.088739
0.071012
0.100426
0.075242
0.090026
0.089480
0.055546
0.062802
0.064711
0.059620
0.057129
0.017484
0.033854
0.030066
0.032461
0.037906
0.050117
0.049071
0.011552
0.037498
0.008887
0.009014
0.012120
0.017186
0.022144
0.010989
0.037321
0.016879
0.018672
0.021588
0.016887
0.006017
0.017142
0.021658
0.010725
0.029763
-0.022902
0.028107
-0.012847
-0.000611
0.028758
0.004197
-0.005966
0.014963
0.010327
0.035362
0.025467
0.015578
0.001891
-0.015103
-0.005762
-0.008232
0.019010
-0.017438
-0.008122
-0.007255
0.005674
-0.008150
0.010366
-0.033151
0.007609
-0.012170
-0.017801
-0.011434
0.004727
-0.020372
0.017705
0.006293
-0.006549
0.002380
0.006699
0.000413
0.000886
-0.014203
0.012795
-0.000401
0.003845
0.006109
-0.003698
0.019282
0.001649
0.019107
0.016561
0.002949
-0.023207
0.000303
0.006935
-0.006264
0.017162
-0.001946
0.041293
0.009282
-0.001201
-0.000298
0.006449
0.023937
-0.017014
-0.007039
0.017930
-0.001131
0.021191
-0.001316
-0.009223
0.010787
0.014431
0.003785
0.004320
0.004888
-0.013376
0.002328
-0.006329
0.002784
0.007478
-0.019156
-0.005038
-0.000273
0.013916
-0.013554
-0.007487
0.020163
0.003328
0.018603
0.011198
0.011574
0.026757
-0.005879
0.049818
0.032764
0.034290
0.032351
0.043083
0.048330
0.065336
0.072272
0.104340
0.106351
0.138178
0.116295
0.124518
0.139866
0.134563
0.147331
0.160126
0.153881
0.137568
0.153928
0.144033
0.133950
0.117123
0.138153
0.125538
0.099826
0.112919
0.059918
0.076718
0.060950
0.082709
0.060086
0.075304
0.041543
0.058109
0.005639
-0.005930
0.029155
0.035484
0.012093
-0.023947
-0.003901
-0.028890
-0.021984
-0.025674
-0.011118
-0.028737
-0.028693
-0.051014
-0.032724
-0.028441
-0.058013
-0.049202
-0.041850
-0.019756
-0.044903
-0.035517
-0.012258
-0.003756
0.022505
0.061786
0.090651
0.131865
0.123602
0.177431
0.258998
0.294840
0.378202
0.419253
0.486247
0.548788
0.640057
0.697960
0.726629
0.812539
0.882972
0.886612
0.962676
0.972096
1.002262
0.999574
0.994737
0.977039
0.932751
0.941057
0.851917
0.842802
0.789906
0.718382
0.671306
0.580141
0.499279
0.433225
0.369759
0.316391
0.284812
0.212500
0.167473
0.139310
0.111818
0.088677
0.095803
0.080126
0.083802
0.083982
0.086999
0.126621
0.172250
0.187054
0.218642
0.257107
0.299488
0.323332
0.411905
0.441614
0.511502
0.522487
0.566527
0.615656
0.656169
0.678394
0.722278
0.756647
0.759440
0.753295
0.785884
0.782338
0.778799
0.777182
0.800569
0.774115
0.750944
0.733143
0.727180
0.701904
0.689126
0.649090
0.627046
0.567194
0.553983
0.542820
0.511521
0.498594
0.490359
0.452356
0.412166
0.396136
0.386610
0.381103
0.397787
0.328447
0.336016
0.336872
0.315544
0.309493
0.323788
0.317231
0.289538
0.293601
0.287986
0.271708
0.253275
0.253295
0.245073
0.251391
0.264103
0.247380
0.222373
0.225770
0.222230
0.226327
0.170831
0.187686
0.193354
0.171621
0.188154
0.198179
0.164293
0.161292
0.161742
0.156605
0.142158
0.151706
0.135012
0.151911
0.105156
0.128125
0.125820
0.111746
0.111542
0.108194
0.123986
0.105424
0.107431
0.100826
0.067562
0.085334
0.061608
0.024227
0.067739
0.077166
0.065947
0.043929
0.053814
0.064069
0.054894
0.072390
0.055478
0.043585
0.077415
0.030486
0.049315
0.022800
0.038500
0.016457
0.028757
0.034355
0.005970
-0.005267
0.039800
0.023619
-0.005221
0.011266
0.009299
0.020213
-0.008097
0.020705
0.004738
0.005749
0.001981
0.016188
0.040042
0.006377
0.007489
0.002925
0.017848
0.002910
-0.004863
-0.016962
0.012295
0.011597
0.008658
-0.025284
-0.010352
-0.011591
-0.000718
0.011684
0.009952
0.008117
-0.011430
0.011383
0.010389
-0.000880
-0.003363
-0.028479
0.028967
-0.029230
0.002884
-0.013855
0.013263
0.039461
0.000462
-0.019507
-0.020935
-0.000791
0.009093
0.013082
0.015919
0.014049
-0.009663
0.000749
-0.000211
-0.014278
-0.010506
-0.000446
0.013242
-0.016888
-0.000011
-0.012944
0.006875
0.002352
-0.009378
0.024158
0.006702
-0.001869
-0.005753
0.006952
-0.035296
-0.010126
-0.000618
0.017338
-0.006022
0.024330
0.013640
-0.005992
-0.011556
0.007143
-0.015817
-0.020675
0.025378
-0.004661
-0.008403
0.009557
0.007077
-0.004528
-0.004127
-0.002241
0.007137
0.009197
0.010996
0.005403
0.007920
-0.008931
0.027847
0.027969
0.014543
0.001618
0.011945
0.036001
0.027925
0.024069
0.036069
0.054360
0.053975
0.050394
0.049679
0.075345
0.063385
0.088627
0.085395
0.096994
0.113740
0.145054
0.177956
0.128771
0.119565
0.128793
0.155037
0.112261
0.164261
0.145568
0.148921
0.142681
0.118726
0.097907
0.138077
0.119431
0.094803
0.117042
0.082969
0.056198
0.071233
0.065025
0.071339
0.043867
0.018505
0.053278
0.016363
0.010860
-0.011737
0.001727
0.010521
0.004124
-0.020820
-0.017591
0.004930
-0.030953
-0.028165
-0.053129
-0.027267
-0.028809
-0.072272
-0.053508
-0.072545
-0.059230
-0.048162
-0.056675
-0.028033
-0.005520
0.031140
0.045173
0.078739
0.127363
0.147612
0.177035
0.252809
0.315196
0.353256
0.431181
0.473129
0.545577
0.612437
0.667763
0.740487
0.787747
0.870485
0.888983
0.931302
0.980337
0.973760
1.000890
0.996476
0.963620
0.945027
0.941069
0.859873
0.846878
0.775677
0.712523
0.644193
0.576495
0.502593
0.428366
0.396953
0.317245
0.251221
0.203827
0.176954
0.140906
0.106912
0.093022
0.089939
0.091354
0.077938
0.073463
0.087363
0.117867
0.178488
0.190214
0.252516
0.290141
0.291844
0.363081
0.426086
0.430823
0.505925
0.526166
0.607611
0.605996
0.659125
0.707927
0.690930
0.735140
0.750507
0.787935
0.793173
0.787884
0.810286
0.806351
0.792654
0.773576
0.739455
0.746162
0.729441
0.703490
0.657709
0.639169
0.636577
0.600450
0.577075
0.562796
0.517217
0.503376
0.484095
0.457538
0.438654
0.426355
0.410772
0.396857
0.356691
0.334117
0.327724
0.350091
0.344878
0.289108
0.341408
0.311874
0.274420
0.277425
0.315849
0.252786
0.248135
0.256953
0.243604
0.233858
0.259408
0.222643
0.245493
0.224260
0.201999
0.217399
0.219881
0.191379
0.192722
0.196684
0.179916
0.182587
0.172944
0.152648
0.158228
0.141658
0.128463
0.155157
0.139095
0.129406
0.126608
0.128081
0.128261
0.098852
0.095577
0.088871
0.092189
0.100419
0.088945
0.102683
0.097718
0.087317
0.059157
0.062286
0.067190
0.075237
0.093451
0.062290
0.055234
0.043035
0.047537
0.011089
0.031060
0.043816
0.040975
0.035653
0.033314
0.030926
0.042508
0.038305
0.037594
0.016366
0.012184
0.030891
0.009443
-0.000841
0.023432
0.029695
0.013292
-0.005965
0.012396
0.023175
0.017130
-0.001356
0.006637
0.004893
-0.005837
-0.000388
0.002248
-0.005515
-0.032650
0.039712
0.023483
-0.000610
-0.005347
0.003691
0.002880
0.004882
-0.000002
0.025170
0.003132
0.033289
-0.004732
0.001709
0.002471
0.041745
-0.009842
0.005871
-0.000604
0.000002
0.013239
-0.014519
0.004056
0.001680
0.007925
-0.001105
0.006070
0.016437
0.018409
-0.001986
0.003156
0.013020
-0.027585
0.019678
0.005884
0.015068
0.013130
0.000877
0.033102
-0.015920
0.012634
-0.009306
-0.012848
-0.005594
0.025405
0.001520
0.002101
0.003688
0.004007
-0.014723
-0.009045
0.003243
-0.003426
0.000486
-0.007765
0.002061
0.012991
-0.002137
0.012212
-0.021431
-0.032195
-0.006387
-0.034049
0.017222
0.001197
-0.007995
0.000867
0.003664
0.011581
0.007479
-0.018067
0.024957
-0.018612
0.002310
-0.011520
-0.001782
-0.004075
-0.008231
0.003264
0.031354
0.012759
0.027018
-0.001640
0.046055
0.011326
0.030807
0.061946
0.052413
0.039075
0.036723
0.072442
0.064241
0.070475
0.109474
0.097380
0.083697
0.111840
0.112172
0.135450
0.155407
0.145208
0.130640
0.164682
0.146421
0.132255
0.162465
0.138614
0.149156
0.144770
0.137022
0.115884
0.094668
0.111416
0.083782
0.076117
0.068613
0.085930
0.030446
0.011468
0.021373
0.017915
0.052901
0.008914
0.020094
0.006012
0.024613
0.004957
-0.002304
-0.030552
-0.019121
-0.040973
-0.033684
-0.063562
-0.023760
-0.056700
-0.037934
-0.034905
-0.064842
-0.021966
-0.077816
-0.050063
-0.020675
-0.012770
-0.014923
0.007188
0.069913
0.082157
0.112150
0.133696
0.198091
0.252982
0.280916
0.360356
0.410469
0.492656
0.557045
0.633403
0.689865
0.750991
0.816601
0.858787
0.891584
0.939180
0.974727
0.986734
1.004347
0.998104
0.992592
0.974034
0.963023
0.875462
0.785109
0.786885
0.679333
0.641977
0.586589
0.495088
0.466813
0.360632
0.312778
0.253388
0.228199
0.157221
0.182749
0.113630
0.098984
0.088816
0.075851
0.087997
0.094725
0.109263
0.139994
0.138928
0.201539
0.228776
0.298060
0.315226
0.378644
0.432223
0.471738
0.496315
0.527804
0.611606
0.656762
0.668721
0.703955
0.707645
0.726875
0.749878
0.756126
0.760189
0.770324
0.809828
0.793113
0.783096
0.749386
0.769290
0.723455
0.707123
0.710304
0.664252
0.652260
0.609900
0.628649
0.566945
0.536560
0.521134
0.495880
0.487530
0.476947
0.441272
0.442112
0.377201
0.403320
0.378386
0.353544
0.344492
0.326209
0.327304
0.331926
0.310942
0.294359
0.274351
0.288877
0.271244
0.258056
0.271473
0.269293
0.251412
0.224132
0.256016
0.218475
0.211036
0.196882
0.203563
0.202729
0.202840
0.215871
0.211140
0.195349
0.145530
0.203795
0.169044
0.175422
0.177596
0.149822
0.145538
0.114027
0.131871
0.128475
0.127845
0.153097
0.102195
0.103606
0.105989
0.114433
0.105729
0.106370
0.094019
0.078145
0.104320
0.081475
0.066514
0.066163
0.057358
0.071599
0.035785
0.060846
0.029366
0.041518
0.071894
0.047512
0.045610
0.064878
0.026702
0.043161
0.015828
0.032339
0.036449
0.031027
0.053796
0.022335
-0.014015
0.008207
-0.003435
0.017189
0.016449
0.025386
0.029070
0.008942
0.014904
0.008325
0.055002
-0.021425
0.015376
0.009400
0.002082
-0.012420
0.005702
0.016489
0.029175
0.021766
0.000081
0.020914
-0.003887
-0.011656
0.014935
-0.014431
0.021450
0.010470
0.011046
-0.001503
0.003423
-0.005461
0.017310
0.032190
0.004130
0.010051
0.027765
-0.007790
0.028862
-0.008233
0.016773
0.008051
0.002226
0.023365
-0.004225
0.023012
-0.001875
0.007167
0.007147
0.005950
-0.011211
-0.002480
0.001339
-0.004675
-0.033207
-0.001728
-0.002836
-0.013432
0.021264
0.009336
0.029560
-0.008501
-0.009691
-0.003659
0.030367
-0.000564
-0.003733
-0.022860
-0.023218
0.007209
-0.014716
-0.001116
-0.005922
0.018831
0.000001
0.006979
-0.000546
-0.020375
-0.005183
-0.011775
0.012310
0.010666
-0.013182
0.004580
-0.029089
-0.009351
-0.002252
-0.021392
-0.017169
0.003241
-0.008786
-0.005280
0.021541
0.015001
0.028341
-0.012379
0.020286
0.036090
0.011198
0.021998
0.013835
0.011062
0.021879
0.023439
0.042407
0.042110
0.054496
0.047005
0.071069
0.074740
0.089930
0.094918
0.108185
0.108233
0.118717
0.114254
0.121910
0.142824
0.184776
0.139320
0.135200
0.147743
0.133627
0.149513
0.163625
0.136361
0.139461
0.133802
0.116306
0.105504
0.118224
0.089283
0.074045
0.042910
0.057125
0.049195
0.020990
0.037943
0.031245
0.023633
0.022130
0.019331
0.020412
0.002518
0.006533
-0.029696
0.004435
-0.024249
-0.010689
-0.002999
-0.075744
-0.046520
-0.027209
-0.053094
-0.059461
-0.039220
-0.050267
-0.034238
-0.044318
-0.014406
-0.026591
0.006500
0.011009
0.018359
0.054490
0.093879
0.160704
0.197004
0.232962
0.311444
0.333678
0.435633
0.478742
0.568117
0.571454
0.667495
0.755391
0.800283
0.873678
0.901147
0.955549
0.955439
0.998948
0.993717
0.994713
0.941967
0.966980
0.920108
0.883843
0.830181
0.783556
0.693126
0.645688
0.588517
0.499674
0.436276
0.371800
0.298955
0.239972
0.218186
0.144933
0.127834
0.119554
0.078074
0.082659
0.080217
0.090797
0.104898
0.101785
0.165653
0.176991
0.189007
0.221488
0.299780
0.308605
0.370961
0.411498
0.445638
0.501644
0.549194
0.585550
0.591762
0.657683
0.692152
0.705283
0.724001
0.745802
0.754471
0.758512
0.793917
0.767461
0.770402
0.759803
0.770743
0.771048
0.731024
0.750767
0.696917
0.672064
0.650330
0.631933
0.606015
0.570895
0.549036
0.549120
0.496529
0.485130
0.464889
0.430674
0.425171
0.400971
0.392065
0.385053
0.369998
0.338046
0.338495
0.318989
0.322368
0.307422
0.284467
0.279996
0.295942
0.278048
0.285391
0.248888
0.258395
0.243789
0.256350
0.270737
0.258809
0.213436
0.253242
0.215260
0.237765
0.245911
0.204446
0.206904
0.176937
0.196515
0.173967
0.188426
0.157914
0.158765
0.147038
0.160085
0.153766
0.146292
0.115440
0.146528
0.117047
0.126538
0.112807
0.132916
0.057100
0.095686
0.073717
0.106186
0.091753
0.101229
0.061194
0.070367
0.088921
0.073167
0.056145
0.055524
0.050259
0.044318
0.054877
0.079317
0.027492
0.023845
0.045688
0.046185
0.036182
0.049445
0.020315
0.022786
0.039811
0.011206
0.016354
0.010552
-0.000165
0.019442
0.022452
0.016006
-0.008101
0.040955
0.034717
0.007710
0.001012
0.023446
0.022027
0.007492
0.024656
-0.023068
-0.009130
0.003262
0.002698
-0.008371
0.009774
0.014288
0.007694
0.038987
-0.055273
0.010019
