0.001208
0.063015
0.024463
0.014994
-0.026962
-0.035882
-0.061639
-0.072435
-0.077774
-0.022614
-0.018581
-0.053393
-0.017441
0.027691
0.027383
-0.006711
0.023040
0.031358
-0.009567
-0.004080
0.022359
0.014091
0.008485
0.029811
-0.008996
-0.053233
-0.020926
-0.032550
-0.005524
0.068073
0.070829
0.114216
0.090751
0.056811
0.030664
0.056638
0.046390
0.048845
0.069840
0.008050
-0.002665
-0.037803
-0.014254
-0.018884
-0.046544
-0.021343
0.015680
-0.002690
0.006199
0.003043
0.018496
-0.022292
-0.040570
-0.059789
-0.082065
-0.115004
-0.100334
-0.069508
-0.052679
-0.030640
0.041683
0.003504
-0.008497
-0.007520
-0.024825
-0.054705
-0.039527
0.004914
0.064993
0.079429
0.109634
0.188543
0.264298
0.407414
0.490066
0.686533
0.831619
0.895182
0.957087
0.969424
0.937598
0.893121
0.845479
0.747610
0.643006
0.460442
0.302797
0.138860
0.060030
-0.084097
-0.100899
-0.132340
-0.084530
-0.123499
-0.115283
-0.090375
-0.049688
-0.062951
-0.003410
0.039704
0.052735
0.076939
0.079115
0.080971
0.068664
0.028832
0.060988
0.075199
0.063591
0.118733
0.182015
0.180110
0.168866
0.141777
0.120435
0.073390
0.106900
0.110157
0.153881
0.171047
0.174533
0.214459
0.204021
0.206460
0.220051
0.222885
0.234331
0.262231
0.253508
0.320456
0.297158
0.221491
0.231123
0.199456
0.155250
0.160298
0.216348
0.233928
0.232122
0.243882
0.301777
0.249415
0.224757
0.248888
0.283804
0.231029
0.324859
0.329715
0.290563
0.343235
0.361116
0.368749
0.331246
0.341706
0.343090
0.363680
0.364216
0.378770
0.388823
0.321254
0.262048
0.273047
0.239137
0.283849
0.221184
0.234022
0.219933
0.272752
0.264066
0.356490
0.341577
0.310036
0.245003
0.246498
0.184632
0.138813
0.112706
0.151344
0.147130
0.181659
0.184153
0.220620
0.151195
0.136193
0.107101
0.144873
0.135351
0.174590
0.220420
0.252474
0.220697
0.152334
0.141123
0.129697
0.094771
0.115862
0.120475
0.156922
0.201003
0.159868
0.146480
0.134822
0.122395
0.062361
0.022881
0.030730
0.015904
0.048820
0.093190
0.125576
0.111957
0.109363
0.135364
0.113296
0.133400
0.158901
0.119019
0.081547
0.056084
0.025170
0.030047
0.021467
0.011243
0.032678
0.019582
0.069855
0.017061
0.028758
0.070048
0.052206
0.001784
0.030573
-0.014415
-0.039353
-0.018917
-0.010941
-0.012885
0.020156
0.001802
-0.007566
0.004955
0.006793
-0.005549
-0.031718
-0.021557
0.037803
0.044318
0.067278
0.052935
0.030533
0.029125
0.000260
0.003317
0.028364
0.008077
0.028010
0.013852
-0.026417
-0.009014
0.031211
0.004205
0.023459
0.020878
-0.008133
-0.031540
-0.043825
0.000722
-0.014075
0.028874
0.001570
-0.010303
-0.038874
-0.034010
-0.013484
-0.026554
-0.002158
-0.002892
-0.004572
-0.012797
-0.020660
0.034550
-0.014601
0.020541
0.008119
-0.023823
-0.010554
-0.013571
-0.030400
-0.028965
-0.002776
-0.057661
-0.011333
-0.043330
-0.021241
-0.037060
-0.013775
-0.016000
-0.018748
-0.018817
0.019388
0.046400
0.068377
0.081402
0.117372
0.045141
0.045505
0.029846
0.030218
0.035200
0.048161
0.073980
0.037785
0.016718
-0.054368
-0.068182
-0.106936
-0.094902
-0.090361
-0.096827
-0.108398
-0.085421
-0.134040
-0.090676
-0.077279
-0.061742
-0.056588
-0.053310
0.003175
0.000400
0.074702
0.112111
0.174681
0.286298
0.421161
0.527137
0.626808
0.744222
0.841424
0.904302
0.981337
0.941315
0.894223
0.885499
0.788110
0.646676
0.495965
0.338230
0.234339
0.120694
-0.042366
-0.137205
-0.123646
-0.142294
-0.164708
-0.181683
-0.085685
-0.056956
-0.034479
0.056206
0.113267
0.082669
0.047388
0.067099
0.036711
0.052939
0.042195
0.087838
0.136316
0.138082
0.158595
0.163959
0.092071
0.096257
0.167509
0.158465
0.167827
0.218249
0.201136
0.190755
0.208091
0.273442
0.234624
0.249699
0.203113
0.196943
0.175310
0.166695
0.160791
0.184865
0.157013
0.267388
0.256691
0.266970
0.283929
0.246036
0.223454
0.217065
0.218046
0.216196
0.240808
0.272815
0.289586
0.313290
0.332201
0.348711
0.346816
0.318061
0.313412
0.252362
0.229798
0.273538
0.247681
0.311766
0.316197
0.324148
0.305769
0.356636
0.340646
0.387104
0.372402
0.324771
0.347723
0.277482
0.299744
0.270398
0.259244
0.256563
0.243820
0.224201
0.226098
0.252590
0.223824
0.258598
0.195035
0.228050
0.203482
0.243029
0.283158
0.245319
0.225427
0.183456
0.188730
0.200929
0.210886
0.189387
0.175259
0.190769
0.142432
0.176882
0.163406
0.121734
0.114332
0.077147
0.141278
0.147087
0.142022
0.190969
0.230829
0.208022
0.186403
0.178818
0.142571
0.110006
0.133223
0.144896
0.177093
0.189675
0.135411
0.110676
0.083945
0.068953
0.032289
0.065860
0.104198
0.040363
0.058614
0.049574
0.008927
0.048305
0.103280
0.111076
0.086020
0.099404
0.092685
0.108890
0.086208
0.066065
0.071044
0.081136
0.069226
0.085729
0.052881
0.094607
0.008141
0.008770
0.016802
0.034077
-0.010915
0.043053
-0.001985
-0.061072
0.004006
-0.012670
-0.016022
-0.013642
0.043625
0.005881
0.045025
0.053130
0.078656
0.063799
0.083425
0.086206
0.020252
0.031132
0.047984
-0.041761
-0.050123
-0.078509
-0.067683
-0.070306
-0.037752
-0.021456
0.000920
0.047552
0.076573
0.055046
0.080607
0.039825
0.064982
0.010128
0.048822
0.002303
-0.011184
0.002245
0.020184
-0.005510
0.018425
0.030092
0.023658
0.036241
-0.002392
-0.011927
-0.047471
-0.053577
-0.022382
0.005487
0.026596
0.017420
0.009570
-0.000386
0.003446
0.009766
0.069736
0.085298
0.084035
0.018295
0.037682
0.023431
-0.018329
-0.007407
-0.061522
0.006899
-0.008578
-0.020604
-0.036530
0.045913
0.045428
-0.029969
-0.005033
-0.027703
-0.092428
-0.044599
-0.053436
-0.048673
0.018079
0.016076
-0.014878
-0.005753
-0.004964
0.010023
0.000755
0.029176
0.030489
0.053062
0.043543
0.039557
0.038628
0.035120
0.068081
0.054240
0.068301
0.081644
0.045903
0.063310
0.028352
-0.006154
0.006184
-0.001167
-0.079023
-0.047326
-0.046337
-0.081816
-0.040499
-0.079621
-0.041219
-0.042265
-0.030450
-0.019637
0.058935
0.061366
0.076251
0.016454
0.001523
-0.029932
0.027940
0.024060
0.061362
0.038768
0.044459
0.016975
-0.021807
-0.030654
-0.042447
-0.002303
0.017135
-0.003235
0.055165
0.015088
0.026562
0.007137
-0.012862
-0.043938
-0.073868
-0.070826
0.002788
-0.018407
0.020349
0.031918
0.022193
0.080815
0.098868
0.052905
-0.007236
-0.005930
-0.024251
-0.041260
0.012129
0.019799
0.089045
0.035763
0.036046
0.063039
-0.022664
-0.026403
-0.065449
-0.069657
-0.107727
-0.098867
-0.060806
0.034447
0.134672
0.173764
0.392972
0.542034
0.671396
0.765084
0.884840
0.933958
1.000171
1.053444
0.972697
0.928138
0.800650
0.640837
0.468322
0.318747
0.183769
0.049403
-0.027566
-0.058359
-0.077913
-0.148635
-0.159218
-0.114580
-0.095769
-0.120242
-0.084964
-0.059064
-0.081472
-0.105842
-0.062965
0.016289
0.011826
0.088219
0.090874
0.113324
0.059678
0.083516
0.041785
0.059087
0.025416
0.083686
0.082865
0.104199
0.110834
0.069459
0.108319
-0.054946
-0.000042
0.040657
0.026898
0.069932
0.034210
-0.020513
0.028669
-0.009873
0.039859
0.019757
0.064588
0.014798
0.044749
0.043313
0.018780
0.012455
0.022656
-0.027269
-0.018406
-0.021338
0.001922
-0.052227
-0.023982
-0.003409
-0.005740
-0.051423
-0.031969
-0.004428
-0.010184
0.017046
-0.002851
-0.050171
0.031292
-0.006926
0.023303
0.035637
0.052975
0.004066
0.026030
-0.007362
0.016608
-0.016201
-0.012331
-0.028888
-0.032749
-0.019501
0.008012
-0.040908
0.000172
-0.011735
0.045561
0.014864
-0.018612
-0.048797
-0.041400
-0.063863
-0.055064
-0.056348
-0.004219
0.019056
0.046763
0.045850
0.097277
0.093244
0.016375
0.006334
0.049887
-0.033899
-0.029746
-0.032989
0.045445
0.094138
0.190250
0.255469
0.342844
0.438966
0.542472
0.678040
0.866106
0.934171
0.987180
1.009707
0.957921
0.912304
0.883199
0.797797
0.642692
0.485150
0.288397
0.092364
-0.016427
-0.077362
-0.115102
-0.142072
-0.118101
-0.116210
-0.125263
-0.066189
-0.080221
-0.031987
0.044191
-0.007439
0.046128
0.068741
0.079493
0.101952
0.158170
0.167042
0.164193
0.149139
0.112422
0.107745
0.086007
0.141508
0.160280
0.205726
0.210950
0.242751
0.157620
0.212762
0.194394
0.204417
0.143105
0.167419
0.157411
0.097247
0.093259
0.125752
0.151133
0.167545
0.228379
0.207052
0.211036
0.214470
0.215518
0.187391
0.173169
0.177579
0.208469
0.250597
0.254036
0.259718
0.227957
0.252209
0.255251
0.238290
0.257474
0.343716
0.308446
0.327393
0.355015
0.297576
0.241079
0.255514
0.197557
0.204271
0.197515
0.187067
0.259128
0.312806
0.303468
0.377424
0.335734
0.294172
0.253689
0.237927
0.207550
0.226255
0.233216
0.241257
0.274197
0.317383
0.291354
0.308947
0.333634
0.308819
0.294856
0.323882
0.269759
0.213495
0.206617
0.203684
0.240031
0.222984
0.245934
0.313788
0.303780
0.288511
0.236345
0.207765
0.205815
0.167639
0.125751
0.129626
0.134808
0.117565
0.163152
0.123133
0.103612
0.164143
0.142144
0.179983
0.187347
0.197420
0.150244
0.131391
0.107831
0.126908
0.125810
0.074965
0.069160
0.080593
0.064548
0.046128
0.046352
0.036914
0.059354
0.090372
0.087141
0.036190
0.054439
0.095888
0.080609
0.081218
0.022833
0.065071
0.006669
0.020484
0.000185
0.023963
-0.035804
0.026662
0.015410
0.002060
0.013132
-0.041395
-0.060811
-0.078296
-0.061039
-0.014813
-0.008019
0.001570
-0.017638
0.006228
-0.026763
0.061497
0.013093
0.042980
0.064789
0.068410
-0.045392
-0.039970
-0.053265
-0.060877
-0.045269
0.025470
0.013723
0.017867
0.017365
0.029395
-0.011337
0.023783
-0.013556
0.029321
0.019292
0.024451
-0.060433
-0.013929
0.002612
-0.027268
-0.022265
0.014543
0.027500
-0.004524
-0.007952
0.030172
0.019958
-0.018288
-0.035573
-0.020283
-0.048932
-0.044783
-0.003290
0.038584
0.022192
0.019213
0.027767
-0.031445
-0.050489
-0.007717
-0.030548
-0.093054
-0.045964
-0.043464
-0.032762
0.009049
0.034474
-0.008797
0.000329
-0.007714
-0.016280
-0.013309
0.013150
0.037210
0.021625
-0.033077
-0.007879
-0.065834
-0.053105
-0.046816
-0.027537
-0.035544
-0.044287
-0.053350
-0.007173
-0.034802
0.007229
0.088666
0.083506
0.153887
0.189530
0.274956
0.330109
0.463380
0.623942
0.777041
0.837794
0.910694
0.969116
0.967461
0.982104
0.923900
0.802622
0.637242
0.533712
0.374337
0.219892
0.123929
0.049960
-0.020651
-0.079666
-0.134977
-0.082646
-0.111101
-0.094046
-0.099178
-0.083160
-0.077221
-0.011718
-0.035156
-0.072353
-0.012501
-0.019081
-0.040098
0.005685
0.010257
-0.043352
-0.038513
-0.017991
-0.025909
0.010955
0.064910
0.063051
0.058891
0.042903
0.053827
-0.011350
-0.042565
-0.067758
-0.070104
-0.081164
-0.071907
-0.028692
-0.013960
0.019104
-0.003077
-0.021137
-0.012016
0.000411
-0.061477
-0.011265
0.010155
0.035206
0.022582
0.004542
-0.042222
-0.072340
-0.066590
-0.020995
0.050052
0.021613
0.105601
0.079949
0.042372
0.015663
0.044846
-0.037473
-0.044800
-0.029484
-0.064007
-0.026008
-0.000230
0.011493
-0.012207
-0.000193
0.003611
0.008354
-0.004125
0.030020
0.052194
0.034388
0.050807
0.078449
0.047914
0.040034
-0.026345
-0.041522
-0.031505
-0.035534
-0.078685
-0.020450
0.025291
0.028553
0.011121
0.039286
0.014990
-0.018106
0.005860
0.023376
-0.009252
-0.013621
-0.037005
-0.002644
0.000718
-0.017018
-0.001953
0.078581
0.060865
0.046479
0.043111
0.017252
0.026318
-0.039669
-0.010826
0.013627
-0.003342
-0.040443
-0.004241
-0.032618
-0.109961
-0.088784
-0.024574
-0.048208
-0.054078
0.052423
0.020008
-0.010398
0.034208
0.056616
0.090221
0.098227
0.099069
0.076024
0.075656
-0.008098
0.100911
0.051253
0.026979
-0.007506
-0.038396
-0.089648
-0.090458
-0.076413
-0.036567
-0.025565
-0.008116
0.074720
0.063190
0.023258
-0.010216
0.043313
-0.028282
-0.050616
-0.048815
-0.067254
-0.025570
-0.025713
-0.045540
-0.017540
-0.009575
0.003835
0.031793
0.030627
0.014905
-0.003004
-0.011531
-0.014180
-0.032564
-0.016212
-0.019622
-0.067201
-0.000476
0.025260
0.022471
0.075990
0.059603
0.100088
0.008875
0.044882
-0.049547
0.031795
-0.011291
0.034918
-0.003696
0.016096
-0.023720
-0.000691
-0.008093
-0.051589
-0.052272
-0.020646
-0.028429
-0.070593
-0.045246
-0.025375
-0.013674
-0.004849
-0.051486
0.006786
0.025255
-0.010166
-0.052002
-0.007631
-0.029639
-0.064503
-0.018215
0.029515
0.030842
0.040794
0.070827
-0.029023
-0.028066
0.001912
-0.029359
-0.051759
-0.015822
-0.057865
-0.074021
-0.000009
0.001439
-0.028216
-0.012230
-0.056811
-0.083025
-0.108966
-0.062634
-0.055956
0.044646
0.061346
0.092345
0.155849
0.272564
0.331535
0.448149
0.640523
0.725759
0.894149
0.928000
0.966548
0.939735
0.897540
0.745410
0.610996
-0.075252
-0.071496
-0.061611
-0.080854
-0.049635
-0.058280
-0.035919
-0.004520
-0.010698
-0.011254
-0.054004
-0.042217
-0.032936
-0.101984
-0.047053
-0.004079
-0.035082
-0.024819
0.006589
-0.039858
-0.034992
0.022080
-0.033340
-0.065860
-0.021099
-0.025172
-0.048731
0.000596
0.007060
0.016296
0.034797
0.015799
-0.010423
0.034289
0.011305
0.033031
-0.002203
0.020278
0.020343
0.020339
-0.004799
0.008871
-0.009231
-0.025328
-0.035173
-0.069805
-0.053186
-0.064999
-0.027758
-0.010573
0.010346
-0.020270
-0.003953
0.037215
0.017323
0.085769
0.065271
0.057939
0.073936
0.047769
-0.015679
0.009517
0.007195
-0.015148
-0.029326
0.002399
0.023338
0.011762
-0.051628
-0.070934
-0.080217
-0.040544
-0.036907
-0.020957
0.021277
0.050768
-0.013878
-0.000200
-0.012018
-0.047551
-0.048661
-0.032016
-0.032103
-0.022399
0.019247
-0.039131
-0.012762
-0.008297
-0.024799
-0.050262
-0.024439
-0.008366
-0.022449
0.039752
0.003102
-0.018765
-0.074862
-0.023784
0.001414
-0.017459
0.029313
0.069221
-0.005592
0.028195
0.006070
0.020934
0.101862
0.210625
0.346986
0.421911
0.569956
0.717426
0.737832
0.814945
0.918254
0.947295
0.927124
0.951180
0.876247
0.720620
0.609814
0.489105
0.314481
0.207525
0.162983
0.075520
-0.026485
-0.082696
-0.134649
-0.170894
-0.146295
-0.116405
-0.051739
-0.035516
-0.038861
0.015392
-0.007819
0.005706
0.012478
0.007799
0.050909
0.037674
0.062297
0.138364
0.145958
0.113472
0.036388
0.000504
0.009704
-0.006408
-0.003983
-0.021647
-0.008941
-0.021855
-0.001152
0.005858
0.003388
0.020916
0.063837
-0.000028
0.038823
0.009233
0.066984
0.029101
0.027886
0.039508
0.050373
0.014252
0.010601
-0.009606
-0.006352
-0.009178
-0.060072
-0.033856
0.004905
0.006549
0.025315
0.069350
0.129520
0.116006
0.122549
0.116391
0.074186
0.016030
0.002975
-0.020673
-0.016528
-0.001798
0.021432
0.006534
-0.023424
0.031420
-0.012929
-0.034843
-0.021488
-0.029030
-0.029243
-0.001712
0.050767
0.042512
0.039173
0.028761
0.042636
0.014166
-0.001837
-0.011360
-0.007345
-0.043575
-0.045134
-0.002258
-0.051194
-0.024453
-0.034116
0.008811
0.024934
0.058481
-0.011448
-0.028128
-0.041492
-0.064729
-0.027989
-0.043649
-0.003099
0.057895
-0.006209
0.121062
0.163823
0.205690
0.321573
0.450757
0.579717
0.739994
0.825488
0.925902
0.925480
0.945515
0.871579
0.841233
0.790148
0.693624
0.650321
0.504021
0.372477
0.280779
0.178056
0.073388
-0.011028
-0.067148
-0.140777
-0.207576
-0.181777
-0.155246
-0.103958
-0.107968
-0.031281
-0.056696
-0.012026
-0.011552
0.008296
-0.005364
0.040724
-0.010765
-0.008821
0.022482
-0.008371
0.033396
0.088455
0.125882
0.164704
0.174284
0.179641
0.200403
0.143975
0.166843
0.118012
0.117362
0.089232
0.126008
0.192403
0.193057
0.190837
0.233237
0.213424
0.205349
0.223117
0.242662
0.209533
0.225239
0.246760
0.197551
0.221631
0.173811
0.177312
0.225608
0.256001
0.249479
0.325955
0.282546
0.339304
0.293584
0.329753
0.331330
0.322157
0.331125
0.291232
0.286275
0.291626
0.328666
0.259573
0.311326
0.306707
0.250045
0.285625
0.288342
0.342203
0.310125
0.292596
0.271206
0.264720
0.281682
0.323693
0.292386
0.349157
0.242182
0.265794
0.242508
0.200647
0.249009
0.211828
0.198148
0.246355
0.226589
0.189771
0.240254
0.229462
0.242506
0.202002
0.180154
0.191375
0.187595
0.208840
0.185963
0.213913
0.208772
0.235330
0.194895
0.182036
0.152550
0.096985
0.082371
0.086674
0.105574
0.104679
0.150611
0.130388
0.115876
0.133392
0.138889
0.127922
0.135035
0.140052
0.141084
0.087517
0.114944
0.118399
0.109525
0.068708
0.090360
0.043961
0.043231
0.008624
0.063991
0.112015
0.042469
0.032947
0.020528
-0.058413
-0.045792
-0.014963
0.002593
0.028656
0.057372
0.039773
0.077093
0.052285
0.087931
0.109971
0.091966
0.041779
0.017734
0.004476
-0.008692
-0.001431
-0.023017
0.005221
0.004582
0.023701
0.056014
0.051330
0.028200
0.069829
-0.013764
0.006855
-0.007124
-0.004451
-0.005034
-0.032581
0.005070
0.006850
-0.016011
-0.021816
-0.011440
-0.073652
-0.107733
-0.070877
-0.075851
-0.105445
-0.079353
-0.015636
-0.021654
-0.033865
0.011799
0.013103
0.051572
0.049729
0.111350
0.052315
0.077798
0.055271
0.060636
-0.008237
0.027035
0.018781
0.012855
-0.036320
-0.015070
0.007993
0.022665
-0.018505
0.018727
0.018474
-0.004031
0.008530
0.006846
-0.007374
-0.004893
0.040329
-0.014650
0.038029
0.018543
-0.008466
-0.018639
-0.019481
-0.006853
0.023955
0.000609
0.009149
0.010757
-0.023428
-0.021131
0.022817
0.005318
0.012404
0.014699
0.051060
0.035978
0.084023
0.042823
0.041968
0.001410
-0.027793
-0.011308
0.000712
0.064277
0.032180
0.039228
0.012804
0.012404
-0.082356
-0.063010
-0.064668
-0.059593
-0.061588
-0.039870
0.032316
0.045936
0.065910
-0.013804
0.013105
0.010796
-0.001699
0.064443
0.084562
0.050033
0.000726
-0.031304
-0.070185
-0.056357
-0.102428
-0.101988
-0.058371
0.019181
-0.003807
0.047783
0.103854
0.091067
0.029478
0.067213
0.032062
-0.013794
-0.028783
-0.056575
-0.077437
-0.086567
-0.079021
-0.090861
-0.087389
-0.038495
-0.020972
0.044148
0.142938
0.274987
0.381692
0.503764
0.670339
0.761423
0.868026
0.961680
1.013607
0.973145
0.984028
0.888478
0.725904
0.598117
0.500251
0.366344
0.282650
0.183922
0.047407
-0.008484
-0.076418
-0.087120
-0.140456
-0.135857
-0.126459
-0.141693
-0.091846
-0.038614
-0.030323
0.045892
0.087528
0.055466
0.066397
0.075606
0.051696
0.058988
0.144340
0.113101
0.138825
0.123873
0.103641
0.057246
0.068357
0.043729
0.049135
0.096616
0.109278
0.076225
0.087364
0.121215
0.081124
0.040638
0.047177
0.118635
0.106009
0.160537
0.168896
0.159619
0.248784
0.223474
0.233624
0.201448
0.203655
0.162014
0.193948
0.192022
0.238585
0.248752
0.247568
0.212442
0.230813
0.247370
0.234695
0.208349
0.189055
0.185206
0.172703
0.172590
0.220791
0.278720
0.300785
0.303372
0.345739
0.300408
0.274564
0.229849
0.297759
0.253053
0.231594
0.305736
0.343590
0.294079
0.278942
0.264857
0.249368
0.275077
0.230129
0.259889
0.268892
0.274829
-0.017327
-0.010014
0.002355
-0.008848
-0.013284
-0.036490
-0.048228
0.013900
-0.033731
0.042260
0.017885
-0.002385
-0.048629
-0.019261
-0.078258
-0.061401
-0.072405
-0.046193
-0.022538
-0.039969
-0.057033
-0.022299
0.001200
0.006335
0.062599
0.089489
-0.021725
-0.063020
-0.022503
-0.051566
-0.056473
-0.003943
-0.031468
-0.005878
-0.036845
-0.093418
-0.073644
-0.066654
-0.074281
-0.084646
-0.036949
-0.045411
-0.047732
-0.000740
-0.018341
-0.015140
-0.038856
-0.034380
-0.063551
-0.086857
-0.090289
-0.039583
-0.064990
-0.023036
0.022926
0.025221
0.012977
0.027072
0.045511
-0.010392
-0.012943
-0.016666
-0.015480
-0.027950
0.012540
-0.007501
-0.064043
-0.055869
-0.034197
-0.002196
0.042167
0.210306
0.279162
0.335026
0.449394
0.617401
0.744387
0.832873
0.949521
0.984575
0.975489
0.922384
0.836794
0.770419
0.624449
0.476229
0.304451
0.208569
0.103227
-0.017801
-0.081587
-0.152748
-0.178886
-0.190920
-0.153529
-0.123528
-0.103366
-0.071548
-0.039487
0.000637
0.005852
0.022421
0.031898
0.049739
0.087488
0.092657
0.145166
0.127836
0.196686
0.194779
0.160309
0.134981
0.118940
0.058102
0.051069
0.024216
0.040112
0.073467
0.107937
0.132061
0.170576
0.126906
0.183130
0.171782
0.194078
0.144556
0.235705
0.191844
0.201831
0.189719
0.219175
0.187330
0.179394
0.200665
0.255241
0.281576
0.286673
0.274409
0.206038
0.251798
0.212519
0.258698
0.263800
0.303621
0.003328
-0.033966
-0.005152
0.028452
-0.000114
0.077005
0.097295
0.054258
0.019765
0.014948
0.032947
-0.006563
0.059682
0.124151
0.092568
0.062143
0.064853
0.050325
0.017877
0.021736
0.054566
0.109836
0.101739
0.100344
0.085877
0.060895
0.048462
0.055710
0.008239
0.042805
-0.047038
0.009207
-0.045733
-0.008298
0.021259
0.055799
-0.003223
0.017430
0.021462
0.021669
0.018371
0.019101
0.083407
0.027592
0.031944
-0.003986
0.018335
0.005158
0.003983
0.005093
0.008340
-0.034195
-0.093940
-0.040214
-0.092898
-0.068314
-0.103144
-0.066382
-0.043321
-0.070394
-0.059211
-0.024501
-0.031278
-0.035258
0.006601
-0.022171
-0.015886
-0.017110
-0.039488
-0.008838
0.082769
0.125339
0.208243
0.370319
0.515045
0.652822
0.746394
0.803388
0.831051
0.944828
0.934900
0.986295
0.911130
0.810146
0.625880
0.498611
0.362838
0.194294
0.077748
0.008949
-0.090920
-0.095876
-0.169742
-0.171670
-0.146105
-0.074172
-0.039935
-0.011716
0.004240
0.070679
0.039980
0.078099
0.042867
0.071601
0.044848
0.043800
0.053715
0.129633
0.149297
0.124496
0.132394
0.168121
0.128780
0.120293
0.118378
0.123327
0.100101
0.110441
0.111714
0.126468
0.154295
0.124104
0.135054
0.173205
-0.019203
-0.013995
-0.038532
-0.059799
-0.037910
-0.041137
-0.000986
-0.027647
-0.046067
-0.045551
0.037121
0.033348
0.091657
0.097445
0.024531
0.002497
-0.019840
-0.001723
-0.033904
-0.013050
0.002874
-0.016630
-0.022628
-0.041612
0.010057
0.036484
0.051092
0.007288
0.001099
-0.026703
-0.006318
-0.054622
-0.042138
0.014546
0.047045
0.033139
0.042818
0.043967
0.078873
0.021625
0.022565
-0.040612
-0.027011
-0.047530
-0.050872
-0.049804
-0.004667
-0.038123
-0.016547
-0.036877
-0.026086
-0.074413
-0.051076
-0.044700
-0.019467
-0.005513
-0.036076
-0.009954
-0.040563
-0.005869
0.019416
-0.030179
-0.036176
-0.052769
-0.073772
-0.092386
-0.057884
-0.086428
-0.083734
-0.009963
0.102263
0.145106
0.253157
0.391983
0.499831
0.590943
0.699604
0.824854
0.878940
0.922793
0.931139
0.944164
0.866333
0.750133
0.593014
0.435822
0.317298
0.201610
0.094267
-0.034051
0.007707
0.001031
0.022013
-0.004102
-0.060841
0.009704
-0.000069
-0.017126
0.022596
0.036142
-0.008353
-0.006529
-0.018088
-0.050321
-0.053638
-0.051560
0.001661
0.004593
-0.018433
0.020659
0.032701
0.012361
-0.009023
0.001649
0.024868
0.067694
0.090270
0.050575
0.092112
-0.007569
0.014109
0.006497
0.063425
0.087986
0.082908
0.025822
0.018591
-0.015541
-0.019565
0.036537
0.041462
0.044194
0.015388
0.014084
-0.013023
0.006625
-0.086205
-0.065933
-0.036271
-0.047319
-0.066276
-0.010573
-0.061862
-0.040859
-0.039663
-0.011783
-0.013586
-0.013575
0.027666
-0.027111
-0.025977
0.012080
0.030085
-0.006804
-0.037970
-0.009239
-0.000591
0.019958
0.036127
0.034789
0.041704
-0.006320
0.037543
0.046850
0.045415
0.044908
0.067974
0.054081
0.057546
0.098511
0.088466
0.110204
0.076818
0.057318
0.023772
-0.040360
-0.051876
0.012684
-0.039406
-0.021218
0.041097
0.049458
0.023787
0.047338
0.045655
0.000307
-0.029123
-0.070425
-0.022218
-0.013615
0.087670
0.162074
0.250042
0.355853
0.551809
0.678399
0.754934
0.881194
0.914290
0.955896
0.949937
0.913750
0.807396
0.714574
0.553651
0.406131
0.294131
0.134452
0.061296
-0.053394
-0.088920
-0.099064
-0.158887
-0.137985
-0.122761
-0.091935
-0.114281
-0.015936
0.017687
0.075276
0.096586
0.098576
0.122431
0.084579
0.093781
0.038016
0.035886
0.056056
0.092496
0.093133
0.098748
0.106920
0.113601
0.108326
0.173696
0.179229
0.209080
0.230579
0.244422
0.172633
0.162486
0.139805
0.143943
0.140176
0.090123
0.133739
0.102278
0.114567
0.085513
0.184690
0.210930
0.233422
0.193949
0.209138
0.161825
0.190253
0.239769
0.270093
0.240515
0.312428
0.297294
0.313259
0.329326
0.378976
0.326586
0.314089
0.297685
0.272341
0.282859
0.293295
0.294788
0.293617
0.264487
0.335070
0.368985
0.339385
0.330524
0.339718
0.309001
0.274172
0.290948
0.329987
0.312269
0.368618
0.375498
0.315682
0.306329
0.275849
0.243977
0.245310
0.225054
0.223186
0.232472
0.220893
0.266317
0.271460
0.266929
0.334004
0.307957
0.299993
0.304706
0.319736
0.251694
0.193328
0.166641
0.154431
0.085767
0.136933
0.168132
0.139997
0.155657
0.160525
0.162042
0.157596
0.140846
0.127961
0.103637
0.113832
0.152701
0.137557
0.170129
0.197262
0.194408
0.159654
0.125428
0.119836
0.104093
0.091191
0.083706
0.098485
0.149634
0.087754
0.107178
0.113125
0.154942
0.098148
0.116285
0.077349
0.035509
0.002270
0.005577
0.013465
-0.024908
0.021644
-0.019596
-0.020577
-0.020603
0.016775
-0.005394
0.008227
-0.029721
-0.027167
-0.020669
-0.063159
-0.042524
-0.047933
-0.004607
0.007423
-0.054796
0.025071
-0.019143
-0.038099
-0.040956
-0.060781
-0.017643
0.053223
0.011211
-0.006612
0.011198
-0.018109
-0.049154
-0.020965
0.017429
-0.019446
-0.026234
-0.006386
-0.010230
-0.049300
0.023065
0.036447
0.042188
0.014325
-0.008087
-0.009526
0.009865
0.042056
0.042649
0.048888
0.052013
0.053320
0.047812
-0.005722
0.048259
0.040997
0.027045
0.051559
0.085577
0.036475
0.026297
-0.002475
-0.009047
-0.038460
-0.028976
0.003584
0.047224
0.079956
0.003506
0.007495
0.014955
-0.013161
-0.024999
-0.003113
0.003769
-0.017734
-0.031045
-0.007549
0.014129
-0.034928
-0.018469
0.006084
-0.061790
0.035424
0.046335
0.037510
-0.005382
-0.010105
-0.072246
-0.075106
-0.023495
0.009800
0.033315
0.010323
0.006168
-0.004913
0.017511
-0.015376
0.030620
0.012373
0.030490
0.022284
0.002439
-0.043115
-0.021397
-0.040119
-0.009105
-0.044372
-0.016550
-0.004169
-0.054938
-0.051952
-0.051732
0.025192
0.103721
0.111411
0.139742
0.230558
0.353469
0.461475
0.571755
0.746051
0.891324
0.957596
1.003424
1.029872
1.028169
0.891198
0.777771
0.641628
0.420099
0.304181
0.197609
0.063654
0.021111
-0.021205
-0.044311
-0.121003
-0.096381
-0.041836
-0.047608
-0.074877
-0.001075
-0.006612
-0.025981
-0.008575
0.013833
0.046995
0.054337
0.086751
0.071916
0.119567
0.135864
0.120988
0.119950
0.143563
0.096389
0.027021
0.057379
0.010329
0.004133
0.047195
0.093241
0.052111
0.094600
0.120718
0.131645
0.125117
0.181998
0.148753
0.125011
0.120088
0.156803
0.175681
0.202616
0.248164
0.302345
0.312875
0.245310
0.244579
0.201125
0.259983
0.259155
0.278269
0.321912
0.294620
0.238518
0.267990
0.229477
0.232868
0.230620
0.279382
0.245770
0.208833
0.218174
0.248768
0.237463
0.295248
0.301768
0.342663
0.314914
0.324842
0.303774
0.343785
0.294187
0.335230
0.309027
0.328202
0.257157
0.323293
-0.023652
-0.048001
-0.012951
0.008267
-0.069833
-0.002907
-0.014730
0.023226
0.009740
0.031126
0.030522
0.022827
-0.002615
-0.032404
-0.001501
0.039995
0.048605
0.079656
0.043688
0.045367
0.001747
0.036161
0.062600
0.027677
0.038266
0.011654
0.017270
0.036056
0.007813
-0.006368
-0.015732
0.010266
-0.023622
-0.036614
-0.011287
-0.032773
-0.080844
-0.069469
-0.025169
-0.036270
-0.027710
0.022657
0.003765
-0.027001
-0.081381
-0.094337
-0.054913
-0.023163
0.058573
0.069100
0.103775
0.075827
0.099520
0.062784
0.062660
0.020340
-0.058465
0.009521
0.012622
-0.023787
0.000108
0.074878
0.049976
0.002900
-0.007421
-0.036378
-0.073482
-0.019997
0.045355
0.010621
0.068706
0.095579
0.217399
0.321538
0.447848
0.607224
0.718813
0.806051
0.871637
0.909559
0.916435
0.860567
0.864932
0.805523
0.668170
0.559286
0.483628
0.343533
0.220730
0.104052
0.026154
-0.047568
-0.082144
-0.060029
-0.085981
-0.100743
-0.080598
-0.038536
-0.007874
-0.003827
0.046550
0.072421
0.050288
0.059574
0.111741
0.069842
0.065575
0.071690
0.060309
0.063136
0.059186
0.113074
0.091126
0.084458
0.168378
0.147112
0.166077
0.166280
0.136130
0.159507
0.159111
0.092799
0.086796
0.118742
0.140500
0.101367
0.104526
0.082069
0.132360
0.086637
0.090043
0.190687
0.197907
0.256032
0.314615
0.295273
0.218601
0.214533
0.192258
0.206586
0.220789
0.235989
0.270302
0.245511
0.231540
0.233190
0.262025
0.277285
0.271051
0.292427
0.314066
0.274973
0.228715
0.246912
0.228867
0.230244
0.265229
0.333130
0.299728
0.301351
0.339001
0.311299
0.312933
0.339175
0.337373
0.309399
0.312986
0.305570
0.275336
0.235883
0.215766
0.220769
0.206960
0.184667
0.220942
0.182058
0.220148
0.182351
0.227883
0.186789
0.199199
0.181183
0.173408
0.211118
0.231512
0.236124
0.189483
0.132770
0.180299
0.180902
0.134375
0.146509
0.142560
0.155930
0.178811
0.141993
0.168828
0.195004
0.114770
0.104205
0.120373
0.081730
0.030601
0.129215
0.101497
0.094074
0.124397
0.121188
0.090688
0.103071
0.115071
0.121273
0.092262
0.048314
0.015026
0.082093
0.038013
0.049486
0.042104
0.064598
0.043583
0.012919
0.000606
-0.052896
-0.042438
-0.050579
-0.048378
-0.038078
0.030995
0.017654
0.068156
-0.019194
-0.012038
-0.042693
-0.062744
-0.033192
-0.030770
-0.014652
0.001555
-0.001636
-0.014772
-0.005269
0.000460
0.015081
0.019055
0.013006
-0.003117
0.003414
-0.012792
-0.027345
0.015313
0.025386
-0.013853
0.019241
0.027081
0.006716
-0.008675
-0.071687
0.008966
0.019741
0.020567
0.049974
0.111926
0.105730
0.081641
0.058630
0.032520
0.021076
-0.010895
0.016550
0.060808
0.087122
0.071668
0.085233
0.070344
0.024904
-0.013403
0.003973
-0.012785
-0.035286
-0.029386
-0.040729
-0.056596
-0.031137
0.014312
-0.025831
0.016075
0.041806
-0.040057
-0.010994
-0.013284
0.000023
-0.005652
0.028977
0.010458
0.066273
0.060742
0.056803
0.054271
0.035721
-0.018332
-0.014706
-0.074651
-0.023632
0.033556
0.042439
0.001729
0.060567
-0.017741
-0.023193
-0.088571
0.001602
-0.034224
0.006322
0.043125
0.031319
0.000633
0.047758
0.036965
-0.015952
-0.009231
0.001750
-0.037568
-0.027718
-0.004739
-0.011836
-0.008387
0.030545
0.014615
0.018040
-0.023960
-0.054218
-0.119650
-0.112708
-0.041713
-0.057534
-0.013999
0.030008
-0.020082
-0.036797
-0.049976
-0.055609
-0.019176
0.082757
0.167493
0.307968
0.450447
0.545537
0.654670
0.761185
0.826608
0.933500
0.946013
0.987197
0.934294
0.828254
0.720004
0.612664
0.466483
0.350878
0.275819
0.139411
0.063331
-0.052609
-0.112921
-0.185868
-0.241027
-0.155890
-0.165687
-0.118194
-0.051398
-0.014552
0.030584
0.045974
-0.004762
0.036515
0.003214
0.043100
0.056756
0.040084
0.090200
0.143417
0.149188
0.157404
0.174785
0.147414
0.119400
0.110787
0.126723
0.110808
0.096599
0.107467
0.148026
0.164218
0.155109
0.212223
0.198790
0.206635
0.231026
0.176794
0.144557
0.163297
0.182354
0.146951
0.183924
0.220334
0.221388
0.237388
0.281818
0.194612
0.213125
0.198581
0.216093
0.205258
0.297484
0.337681
0.324973
0.309875
0.255135
0.223600
0.203083
0.205724
0.246437
0.320739
0.336769
0.273019
0.285463
0.320483
0.299286
0.294644
0.299650
0.348036
0.297924
0.282877
0.258519
0.306148
0.285541
0.267764
0.345365
0.273421
0.267593
0.284715
0.278348
0.256289
0.271780
0.261983
0.202877
0.242861
0.240721
0.224872
0.227060
0.214728
0.230837
0.237092
0.214970
0.255856
0.212134
0.208190
0.165526
0.184965
0.164784
0.191747
0.160379
0.156002
0.158294
0.129858
0.120180
0.148760
0.180777
0.135349
0.135823
0.121904
0.069352
0.010271
0.021204
0.008038
0.053462
0.047913
0.078311
0.072379
0.050389
0.085921
0.074651
0.104593
0.092118
0.095324
0.077388
0.003985
0.013597
-0.021729
-0.043755
0.033544
0.034294
0.044409
0.014615
0.053915
0.051251
0.037396
0.003425
0.034860
-0.003475
-0.012330
0.038939
-0.043343
0.004778
-0.010383
-0.071554
-0.083155
-0.053016
-0.032860
-0.026021
0.033164
0.053770
0.002689
-0.009915
-0.003032
-0.069277
-0.067681
-0.061776
-0.062190
-0.050947
-0.086841
-0.088293
-0.030108
-0.113100
-0.053246
-0.052647
-0.108445
-0.070648
-0.060392
-0.049994
-0.039328
-0.010238
-0.047398
-0.051795
-0.045142
-0.035346
-0.055911
-0.065880
-0.049361
0.021150
0.033503
0.044363
0.085855
0.032621
0.050911
0.061760
0.043767
0.043537
0.037964
-0.006705
-0.013495
-0.009505
0.037754
0.049847
0.093852
0.111906
0.192361
0.206359
0.236677
0.318112
0.459046
0.587924
0.733529
0.881733
0.971718
1.007784
0.984089
0.976306
0.957687
0.810274
0.717181
0.545092
0.373951
0.242075
0.115371
-0.017548
-0.045578
-0.132245
-0.164373
-0.172089
-0.147326
-0.143889
-0.062602
-0.057883
-0.033816
-0.008370
0.005081
-0.035373
-0.024295
0.014068
0.029556
0.071577
0.124682
0.115835
0.078640
0.084581
0.049659
0.037866
-0.009819
0.006651
0.020585
0.025607
0.136066
0.168132
0.155272
0.164130
0.168761
0.117594
0.142468
0.175990
0.157218
0.172223
0.207409
0.226031
0.225887
0.218320
0.243445
0.246194
0.257149
0.236354
0.245009
0.173708
0.204616
0.165292
0.127595
0.128698
0.132698
0.193146
0.248399
0.289911
0.310411
0.359556
0.341677
0.354127
0.394505
0.355786
0.365543
0.382633
0.365869
0.282044
0.304146
0.366830
0.329566
0.316503
0.385682
0.339097
0.241202
0.302078
0.267279
0.271491
0.318917
0.391764
0.327705
0.326939
0.301166
0.296279
0.298023
0.369169
0.372856
0.382465
0.282624
0.262013
0.278908
0.239315
0.206364
0.207788
0.239174
0.192290
0.162426
0.183523
0.144174
0.127328
0.134840
0.141671
0.163248
0.103390
0.138086
0.132723
0.086611
0.109680
0.111432
0.143971
0.177315
0.154533
0.085730
0.108373
0.080207
0.058373
0.061939
0.074915
0.046212
0.069564
0.045876
0.005558
0.019485
0.011188
0.008314
0.031358
0.033926
0.041162
0.086805
0.078019
0.095564
0.158538
0.161626
0.121174
0.118586
0.087792
-0.013901
-0.073331
0.001370
0.053182
0.030325
0.020601
0.073343
0.029174
-0.035989
-0.013032
0.010986
0.063980
0.082909
0.029487
-0.024169
-0.022344
-0.045086
-0.020284
-0.013369
0.019639
0.078469
0.118346
0.114275
0.052157
0.073856
0.059869
0.028018
0.002198
0.009131
0.002972
-0.006362
0.049727
0.018650
-0.023568
0.025054
0.041976
0.033951
0.043940
0.053328
0.049217
0.039285
0.002670
0.047366
0.027609
0.004005
0.003597
0.072513
0.008004
0.017634
0.041577
0.005603
-0.035783
-0.040506
-0.016191
0.011365
-0.000819
-0.001331
0.014716
-0.032768
0.018751
0.023564
0.035290
0.001726
0.025651
0.035178
0.024203
0.012391
0.021901
-0.042697
-0.049398
-0.045383
-0.038724
-0.002763
0.025000
0.045420
-0.003432
-0.002473
-0.019254
-0.022173
-0.012741
0.040864
0.090021
0.063588
0.085695
0.051785
0.064243
0.011760
0.038759
-0.012644
-0.034098
-0.055343
-0.054678
-0.069126
-0.065658
-0.064248
-0.121277
-0.100421
-0.055058
-0.012115
-0.032126
0.021762
0.014329
-0.014033
-0.004379
-0.023850
-0.019016
-0.003703
0.019207
-0.032958
-0.021015
-0.034878
-0.005501
-0.007205
-0.027506
-0.027930
0.056237
0.049880
0.030948
0.000660
0.010831
-0.009444
-0.021676
-0.066323
-0.017088
-0.041506
0.030233
0.006520
0.004821
0.032786
0.024838
-0.022562
-0.018766
-0.029113
-0.043225
-0.068634
-0.051003
-0.014221
-0.047620
-0.032601
0.001943
-0.033510
-0.017173
0.022369
0.019371
0.005208
-0.008802
-0.021582
-0.002744
-0.036387
-0.063801
-0.030525
-0.032379
-0.043879
-0.000964
0.019868
0.051407
-0.002990
0.020801
-0.015886
0.050070
0.009606
0.052571
0.048675
-0.014922
-0.073629
-0.064640
-0.090403
-0.082415
-0.050245
-0.053803
-0.029111
-0.063520
-0.017291
0.000927
0.132809
0.224016
0.432424
0.534328
0.675949
0.784525
0.861918
0.939509
1.004898
0.994177
0.931759
0.801721
0.676877
0.546978
0.422301
0.290021
0.137387
0.081485
0.004738
-0.086336
-0.144798
-0.153953
-0.171197
-0.176332
-0.162473
-0.078802
-0.061085
-0.037022
-0.046821
-0.022849
-0.066280
-0.027033
0.029940
0.088839
0.147156
0.164317
0.200044
0.196881
0.140479
0.163226
0.125586
0.102364
0.086776
0.103884
0.123259
0.113977
0.037359
0.062376
0.098204
0.139643
0.210290
0.207665
0.185406
0.216692
0.181522
0.175720
0.172674
0.192099
0.217498
0.223610
0.212306
0.183472
0.216980
0.173916
0.216273
0.222131
0.233649
0.215863
0.252892
0.218037
0.232239
0.258077
0.260566
0.312722
0.235071
0.248143
0.226657
0.223736
0.161013
0.198029
0.231986
0.246929
0.260471
0.298493
0.317856
0.279956
0.317437
0.285330
0.306559
0.285731
0.249637
0.168133
0.157440
0.182521
0.126856
0.197741
0.216771
0.211471
0.176526
0.247076
0.259814
0.210384
0.255455
0.236665
0.193963
0.214877
0.219873
0.291625
0.248138
0.240320
0.250086
0.252491
0.208245
0.222319
0.192907
0.214805
0.150909
0.110916
0.107242
0.110621
0.105027
0.074212
0.085790
0.086564
0.113753
0.147103
0.128668
0.126838
0.084388
0.182539
0.176861
0.184136
0.182014
0.204717
0.118103
0.067825
0.093690
0.098913
0.064953
0.056006
0.083496
0.092146
0.049955
0.064949
0.095536
0.097366
0.085081
0.100799
0.129515
0.146175
0.114769
0.049563
-0.004432
-0.030973
0.036222
0.031804
0.027179
0.033275
0.010324
0.017053
0.019596
0.043808
0.075090
0.114020
0.082843
0.095516
0.081458
0.023799
0.004242
0.054678
0.012233
0.036808
0.037769
-0.026383
0.039451
0.034749
0.047052
0.030597
0.012879
-0.034550
-0.028343
-0.012508
-0.008232
0.021390
0.068856
0.034178
0.029317
-0.007345
0.002638
-0.005957
-0.037491
-0.006055
0.008253
0.042303
0.069103
0.035536
0.056404
0.018563
-0.017655
-0.049324
-0.048614
-0.038521
-0.081705
-0.074312
-0.050123
-0.050630
-0.044843
-0.097668
-0.059897
-0.049901
-0.032982
-0.044505
-0.041356
-0.037806
-0.066064
-0.001775
-0.003251
-0.001632
-0.004057
0.026383
0.000730
0.034418
0.065694
0.066864
0.062560
0.004864
0.013959
-0.030560
-0.058075
-0.024675
-0.018373
-0.029758
0.047784
0.077255
0.218093
0.249220
0.366434
0.495258
0.663285
0.750950
0.881063
0.991073
0.993513
0.949376
0.938764
0.918540
0.783839
0.654840
0.601004
0.456426
0.262448
0.109804
-0.027891
-0.122619
-0.156857
-0.168866
-0.172785
-0.170342
-0.190143
-0.138454
-0.080823
-0.066238
-0.013482
-0.023748
0.004167
0.008481
0.004511
-0.007629
0.057789
0.038966
0.030548
0.016299
0.072304
0.096310
0.076827
0.088827
0.066851
0.101660
0.152045
0.121476
0.157615
0.121776
0.173885
0.191546
0.190542
0.207872
0.181014
0.159932
0.149934
0.127261
0.167786
0.166018
0.179534
0.145934
0.214783
0.225351
0.222801
0.208218
0.259777
0.261851
0.258071
0.315695
0.384440
0.368854
0.301684
0.266505
0.184264
0.235988
0.244175
0.279091
0.319966
0.342838
0.359320
0.359223
0.396440
0.360733
0.321608
0.250811
0.276798
0.312445
0.343161
0.280915
0.371642
0.331590
0.281940
0.357801
0.333625
0.379208
0.370720
0.366150
0.318486
0.324312
0.251468
0.239979
0.187922
0.212605
0.236031
0.231621
0.286438
0.260490
0.258063
0.221346
0.259052
0.185703
0.187451
0.211637
0.195569
0.201349
0.245286
0.229407
0.266106
0.283707
0.233359
0.184176
0.187230
0.158566
0.134493
0.152409
0.148729
0.158809
0.157342
0.123036
0.125191
0.113184
0.069443
0.113107
0.160073
0.137383
0.186141
0.163401
0.080067
0.085763
0.081396
0.040293
0.078517
0.069955
0.064947
0.062701
0.061474
0.070567
0.032508
0.064915
-0.021289
-0.010873
-0.044732
-0.011496
0.052753
0.025734
0.015070
0.057550
0.040443
0.063349
0.105858
0.062717
0.052533
0.003748
0.007611
0.035542
-0.011240
-0.062609
-0.063984
-0.106326
-0.126456
-0.079951
-0.058479
-0.042684
-0.035212
-0.014169
-0.033531
0.002179
-0.041218
-0.059261
-0.081403
-0.034395
-0.057048
-0.002960
0.001604
0.047506
0.033706
0.045707
0.044649
0.020148
-0.009546
-0.022091
0.002790
0.006274
0.033278
0.010807
0.053497
0.028290
0.035544
0.046043
0.072070
0.047645
0.010784
0.034697
-0.038085
0.007484
-0.002062
0.026200
-0.022821
-0.000645
0.003611
0.020502
0.003372
0.003506
0.048033
0.087114
0.010665
-0.012840
-0.015215
-0.008470
-0.041727
-0.035051
0.007623
0.028501
0.015840
0.035979
0.007026
-0.039196
-0.008364
-0.045487
0.006370
-0.003737
0.022113
0.025760
0.046040
0.005697
0.025878
0.009400
-0.083684
-0.038713
-0.023558
-0.027900
0.045165
0.122494
0.055028
0.060186
0.036046
0.025940
-0.051513
-0.053954
0.000052
-0.033336
0.031287
0.050334
0.043253
0.066598
0.089543
0.076933
0.061122
0.075439
0.057632
0.069459
0.004623
