time(s),Lead_I
0.0000,0.07186200
0.0020,-0.07327244
0.0040,-0.25448406
0.0060,-0.32794425
0.0080,-0.16959967
0.0100,0.06243423
0.0120,0.14526765
0.0140,-0.05026169
0.0160,-0.01448794
0.0180,-0.12419851
0.0200,-0.37707540
0.0220,-0.09090444
0.0240,-0.06737329
0.0260,-0.16951838
0.0280,-0.02468096
0.0300,-0.14701231
0.0320,-0.55628133
0.0340,-0.33926359
0.0360,-0.37683937
0.0380,-0.16005912
0.0400,0.18905061
0.0420,-0.33602777
0.0440,0.29473439
0.0460,-0.22287002
0.0480,0.09690854
0.0500,-0.19528764
0.0520,-0.04919386
0.0540,-0.31895667
0.0560,-0.01033998
0.0580,-0.06642714
0.0600,0.08436845
0.0620,0.48781437
0.0640,0.41255611
0.0660,-0.08731933
0.0680,0.00146133
0.0700,-0.21238990
0.0720,-0.42202893
0.0740,-0.28055546
0.0760,-0.22000296
0.0780,-0.26174995
0.0800,0.01700197
0.0820,-0.35875267
0.0840,-0.14654373
0.0860,0.06202382
0.0880,-0.39762393
0.0900,-0.13613257
0.0920,-0.44751954
0.0940,-0.17780085
0.0960,-0.12430108
0.0980,-0.07022390
0.1000,-0.13537663
0.1020,-0.00766910
0.1040,-0.00518573
0.1060,0.13631339
0.1080,-0.00525821
0.1100,0.08400799
0.1120,0.14443485
0.1140,0.24424854
0.1160,0.22247933
0.1180,0.17646055
0.1200,0.08724348
0.1220,-0.04094620
0.1240,-0.00679976
0.1260,0.07419731
0.1280,0.06688889
0.1300,0.04467769
0.1320,0.09733171
0.1340,-0.03991069
0.1360,0.06904411
0.1380,0.04132171
0.1400,0.11066545
0.1420,0.00116376
0.1440,0.15914723
0.1460,0.00380453
0.1480,-0.05079019
0.1500,-0.07358329
0.1520,-0.01093203
0.1540,0.00198975
0.1560,-0.12652378
0.1580,-0.03238853
0.1600,-0.05642533
0.1620,0.03181322
0.1640,-0.03368254
0.1660,-0.02951098
0.1680,0.04018928
0.1700,0.02014243
0.1720,-0.05711386
0.1740,0.07154723
0.1760,-0.02949109
0.1780,0.07870579
0.1800,-0.15650418
0.1820,0.01986344
0.1840,0.36153403
0.1860,0.24485640
0.1880,-0.03652097
0.1900,0.03201691
0.1920,0.02481567
0.1940,0.07464422
0.1960,0.03851661
0.1980,0.15967233
0.2000,0.05829006
0.2020,0.21895775
0.2040,0.15809628
0.2060,0.09315994
0.2080,0.27516639
0.2100,0.04805437
0.2120,0.15038012
0.2140,-0.16754533
0.2160,-0.06858321
0.2180,0.03243954
0.2200,0.00200208
0.2220,0.05830679
0.2240,0.19166544
0.2260,0.05197819
0.2280,0.01495993
0.2300,-0.15292180
0.2320,-0.00431950
0.2340,0.07571058
0.2360,-0.00520753
0.2380,0.11662234
0.2400,-0.12616949
0.2420,-0.04798315
0.2440,-0.15125658
0.2460,-0.05697129
0.2480,0.16452199
0.2500,-0.04732530
0.2520,-0.16662946
0.2540,-0.06435938
0.2560,0.23194396
0.2580,-0.03029490
0.2600,-0.11379358
0.2620,0.01233497
0.2640,0.05683682
0.2660,0.01561415
0.2680,0.07398452
0.2700,-0.16189539
0.2720,0.36441553
0.2740,0.40951926
0.2760,0.16875812
0.2780,0.39104733
0.2800,0.07486717
0.2820,0.02810037
0.2840,0.01570184
0.2860,0.05126915
0.2880,0.35760391
0.2900,0.17626728
0.2920,0.26618350
0.2940,0.18601318
0.2960,-0.26740229
0.2980,-0.57437730
0.3000,-0.28353506
0.3020,-0.32522202
0.3040,-0.17748168
0.3060,0.08731512
0.3080,-0.20798913
0.3100,-0.09580471
0.3120,-0.16004288
0.3140,-0.11726909
0.3160,0.15144473
0.3180,-0.33179340
0.3200,0.33893088
0.3220,0.05393275
0.3240,-0.07891760
0.3260,-0.29352468
0.3280,-0.27644652
0.3300,-0.31352296
0.3320,-0.68891579
0.3340,-0.08435047
0.3360,-0.12603283
0.3380,0.19344281
0.3400,0.38921154
0.3420,-0.40685523
0.3440,-0.43984541
0.3460,-0.09178308
0.3480,-0.45416713
0.3500,-0.17809850
0.3520,-0.00169246
0.3540,-0.02138904
0.3560,0.23834875
0.3580,-0.33132458
0.3600,0.03474902
0.3620,-0.34283477
0.3640,0.10571344
0.3660,0.15936843
0.3680,0.73814666
0.3700,0.40105322
0.3720,0.42173794
0.3740,0.29504240
0.3760,0.46287462
0.3780,0.42385775
0.3800,0.03275486
0.3820,-0.00695041
0.3840,-0.01498419
0.3860,-0.02660499
0.3880,0.03928383
0.3900,-0.07381000
0.3920,0.06248965
0.3940,0.19472864
0.3960,-0.02903682
0.3980,-0.16604708
0.4000,0.16108654
0.4020,0.17861038
0.4040,0.02520536
0.4060,-0.07092940
0.4080,-0.08025742
0.4100,0.27513534
0.4120,0.12024374
0.4140,0.19378717
0.4160,-0.16516046
0.4180,-0.08151741
0.4200,-0.13493368
0.4220,-0.02107134
0.4240,0.03844835
0.4260,-0.04606941
0.4280,0.17321284
0.4300,-0.00510857
0.4320,-0.14690761
0.4340,-0.33539012
0.4360,-0.08629753
0.4380,0.01982878
0.4400,-0.09665101
0.4420,-0.16064115
0.4440,0.20274019
0.4460,0.16504937
0.4480,0.02235151
0.4500,0.23828609
0.4520,0.09657274
0.4540,-0.08224325
0.4560,-0.12767111
0.4580,0.01431075
0.4600,-0.15930973
0.4620,0.02710767
0.4640,-0.08492312
0.4660,-0.44312569
0.4680,-0.55820924
0.4700,0.00121390
0.4720,-0.15987961
0.4740,0.00951112
0.4760,0.11446630
0.4780,-0.34806371
0.4800,0.01640803
0.4820,-0.03409606
0.4840,0.15144356
0.4860,-0.17668761
0.4880,0.02028636
0.4900,-0.13627665
0.4920,-0.15960528
0.4940,-0.16323510
0.4960,-0.02464821
0.4980,0.11331754
0.5000,0.08808379
0.5020,-0.00021601
0.5040,0.02793066
0.5060,-0.17966224
0.5080,-0.11824054
0.5100,-0.00697622
0.5120,-0.17330895
0.5140,0.05176399
0.5160,0.36490139
0.5180,-0.01100429
0.5200,0.09586357
0.5220,-0.13151520
0.5240,-0.14370900
0.5260,0.06556002
0.5280,-0.06809799
0.5300,0.15111561
0.5320,0.20329376
0.5340,0.08964286
0.5360,-0.05949730
0.5380,0.20292565
0.5400,-0.28874835
0.5420,0.17552285
0.5440,0.08064375
0.5460,0.09950910
0.5480,0.08386780
0.5500,0.18979716
0.5520,-0.01141348
0.5540,-0.01761171
0.5560,0.18760674
0.5580,-0.15117259
0.5600,-0.09738640
0.5620,0.20659725
0.5640,0.14864592
0.5660,0.01558178
0.5680,0.07311808
0.5700,0.14213261
0.5720,-0.14893888
0.5740,-0.01579895
0.5760,0.03515738
0.5780,0.02803689
0.5800,0.05246699
0.5820,0.02375376
0.5840,0.03478942
0.5860,0.19273162
0.5880,-0.27207795
0.5900,-0.00656038
0.5920,0.01949335
0.5940,-0.05226145
0.5960,-0.05127072
0.5980,-0.10279847
0.6000,-0.04406593
0.6020,-0.06644789
0.6040,0.04630883
0.6060,-0.07380448
0.6080,-0.02795183
0.6100,-0.06921975
0.6120,-0.11804468
0.6140,-0.10140323
0.6160,0.13361545
0.6180,-0.01894813
0.6200,0.06041618
0.6220,-0.08315868
0.6240,-0.18802984
0.6260,-0.05954812
0.6280,-0.03790943
0.6300,0.03622490
0.6320,0.09972578
0.6340,0.02927552
0.6360,-0.07704262
0.6380,-0.10801337
0.6400,-0.12669073
0.6420,-0.02165381
0.6440,0.07453936
0.6460,0.06742420
0.6480,0.14614296
0.6500,0.36160022
0.6520,-0.09599131
0.6540,-0.48266637
0.6560,-0.16626605
0.6580,-0.02629563
0.6600,0.01268548
0.6620,0.20519090
0.6640,0.21683933
0.6660,-0.13998389
0.6680,0.20987912
0.6700,0.02263274
0.6720,0.13684995
0.6740,-0.05684878
0.6760,-0.08368187
0.6780,0.03938352
0.6800,0.11040275
0.6820,0.13091297
0.6840,0.08669069
0.6860,-0.04698867
0.6880,0.00968520
0.6900,-0.02416081
0.6920,-0.35842523
0.6940,-0.20619094
0.6960,-0.01961998
0.6980,-0.19749056
0.7000,-0.28188112
0.7020,-0.28917432
0.7040,-0.19531336
0.7060,-0.20047997
0.7080,-0.04195597
0.7100,-0.24260344
0.7120,-0.08031725
0.7140,0.01149815
0.7160,-0.27244580
0.7180,-0.27019596
0.7200,-0.01367278
0.7220,-0.06878722
0.7240,0.09039922
0.7260,0.31776854
0.7280,0.09371336
0.7300,0.09809846
0.7320,0.11237862
0.7340,0.36979479
0.7360,0.32060269
0.7380,0.48906514
0.7400,0.45114025
0.7420,0.21054167
0.7440,0.03824621
0.7460,-0.30927238
0.7480,-0.20156862
0.7500,-0.40118217
0.7520,-0.19307277
0.7540,-0.31238911
0.7560,0.18854441
0.7580,0.06716593
0.7600,0.10831994
0.7620,-0.09541003
0.7640,-0.29122150
0.7660,0.08884557
0.7680,-0.17134394
0.7700,-0.01886803
0.7720,-0.13844068
0.7740,0.15393275
0.7760,-0.00965212
0.7780,0.14084633
0.7800,0.05947582
0.7820,0.15926075
0.7840,-0.23338644
0.7860,-0.25168917
0.7880,0.11173037
0.7900,0.07605179
0.7920,-0.05756014
0.7940,-0.27873340
0.7960,-0.16448702
0.7980,0.01997411
0.8000,-0.10107259
0.8020,-0.41669619
0.8040,-0.21599808
0.8060,-0.14044172
0.8080,-0.10950714
0.8100,-0.11517271
0.8120,-0.08103551
0.8140,-0.14632547
0.8160,-0.04941178
0.8180,-0.34481174
0.8200,-0.06413057
0.8220,0.04525417
0.8240,0.30849081
0.8260,0.25952217
0.8280,0.10514741
0.8300,0.19137387
0.8320,0.25631154
0.8340,-0.00742927
0.8360,-0.00792800
0.8380,-0.22259870
0.8400,-0.18326342
0.8420,-0.27493942
0.8440,-0.15601498
0.8460,-0.20267913
0.8480,-0.03896341
0.8500,-0.12218468
0.8520,0.03819639
0.8540,0.20009044
0.8560,0.07315990
0.8580,0.01908697
0.8600,0.17537515
0.8620,0.08096325
0.8640,-0.03820161
0.8660,0.31544945
0.8680,-0.21767670
0.8700,0.24209216
0.8720,-0.15130615
0.8740,-0.02342561
0.8760,-0.36980259
0.8780,-0.17203873
0.8800,0.14773150
0.8820,0.41971165
0.8840,0.17383759
0.8860,-0.01199961
0.8880,-0.37722331
0.8900,-0.15530890
0.8920,-0.05044582
0.8940,-0.04223193
0.8960,0.17814142
0.8980,0.23919052
0.9000,-0.20413451
0.9020,-0.09863835
0.9040,0.04810437
0.9060,-0.20609237
0.9080,-0.05707492
0.9100,-0.03238415
0.9120,0.15406007
0.9140,0.03469977
0.9160,-0.03584873
0.9180,-0.01855147
0.9200,-0.20658009
0.9220,-0.29031476
0.9240,-0.17878637
0.9260,-0.06038759
0.9280,-0.06812186
0.9300,-0.12749143
0.9320,-0.22728899
0.9340,-0.33581099
0.9360,-0.21797091
0.9380,0.13730535
0.9400,0.06082721
0.9420,0.09680397
0.9440,0.02133300
0.9460,0.10349113
0.9480,0.25101107
0.9500,0.15782700
0.9520,0.20018053
0.9540,0.40084082
0.9560,0.17353103
0.9580,0.21935391
0.9600,-0.02375205
0.9620,-0.05183160
0.9640,0.18194343
0.9660,0.25663823
0.9680,-0.00668372
0.9700,-0.08329806
0.9720,-0.04116174
0.9740,-0.04870426
0.9760,0.28213364
0.9780,-0.02138614
0.9800,-0.20111455
0.9820,0.20744340
0.9840,0.07127444
0.9860,0.20444167
0.9880,-0.07374300
0.9900,0.08355371
0.9920,0.09658383
0.9940,-0.06409234
0.9960,-0.00374887
0.9980,-0.20561628
1.0000,-0.10828194
1.0020,-0.15610763
1.0040,-0.07129005
1.0060,0.12860481
1.0080,-0.20887516
1.0100,0.07729109
1.0120,0.13886711
1.0140,0.20160277
1.0160,-0.04358054
1.0180,-0.50256246
1.0200,-0.20997697
1.0220,-0.37736636
1.0240,-0.00133525
1.0260,-0.14438163
1.0280,0.01582360
1.0300,0.14740658
1.0320,-0.04832759
1.0340,0.07801130
1.0360,0.08415563
1.0380,0.03237098
1.0400,0.20214579
1.0420,-0.05657649
1.0440,-0.05596726
1.0460,-0.01716834
1.0480,0.14588945
1.0500,-0.27743465
1.0520,-0.05509821
1.0540,0.02648696
1.0560,0.39791867
1.0580,-0.04471454
1.0600,-0.13117833
1.0620,-0.15683305
1.0640,-0.09628382
1.0660,-0.01122834
1.0680,-0.04250770
1.0700,-0.13629292
1.0720,-0.10637737
1.0740,-0.05032846
1.0760,-0.03349387
1.0780,-0.12629513
1.0800,0.02743720
1.0820,0.14111166
1.0840,0.05504682
1.0860,0.13643733
1.0880,0.13508222
1.0900,0.32086301
1.0920,0.13588616
1.0940,0.02808818
1.0960,0.01987729
1.0980,-0.19506741
1.1000,-0.29406539
1.1020,-0.11464714
1.1040,-0.02152353
1.1060,0.14055847
1.1080,0.10768782
1.1100,0.23949546
1.1120,0.23452589
1.1140,-0.22396530
1.1160,0.03545019
1.1180,0.00338995
1.1200,-0.09872091
1.1220,-0.21049853
1.1240,-0.39617854
1.1260,-0.27055007
1.1280,-0.16475610
1.1300,0.09154107
1.1320,-0.17019419
1.1340,0.25756347
1.1360,0.20763776
1.1380,-0.13846071
1.1400,-0.20778236
1.1420,0.06158533
1.1440,0.00183450
1.1460,0.07142498
1.1480,0.41843212
1.1500,0.20082065
1.1520,0.22982769
1.1540,0.13754813
1.1560,-0.19407527
1.1580,-0.01976276
1.1600,-0.12319554
1.1620,0.02240209
1.1640,-0.04763608
1.1660,-0.09800061
1.1680,0.28362828
1.1700,-0.19385144
1.1720,-0.60669130
1.1740,-0.23056284
1.1760,-0.19214195
1.1780,-0.11162008
1.1800,-0.64619815
1.1820,-0.23663503
1.1840,-0.34418756
1.1860,-0.25161365
1.1880,0.00247560
1.1900,0.61838377
1.1920,0.35916838
1.1940,0.50015396
1.1960,0.36441937
1.1980,0.58975095
1.2000,0.27691379
1.2020,0.76446348
1.2040,0.32601482
1.2060,0.32364532
1.2080,0.19552283
1.2100,0.02475253
1.2120,0.02707046
1.2140,-0.20374444
1.2160,-0.30653223
1.2180,-0.34415016
1.2200,-0.42381328
1.2220,-0.23408632
1.2240,-0.08408862
1.2260,-0.05180994
1.2280,0.04580080
1.2300,-0.14106755
1.2320,-0.03266003
1.2340,-0.08843968
1.2360,0.00758659
1.2380,-0.13061206
1.2400,0.01506130
1.2420,-0.02746757
1.2440,0.13230981
1.2460,0.12423723
1.2480,0.14414896
1.2500,0.28517681
1.2520,0.07681400
1.2540,0.22254452
1.2560,0.18177006
1.2580,-0.09187411
1.2600,0.15875134
1.2620,0.24730331
1.2640,-0.18876706
1.2660,0.00367379
1.2680,-0.03368948
1.2700,-0.11569073
1.2720,0.04163316
1.2740,-0.03779845
1.2760,-0.09489559
1.2780,-0.13478847
1.2800,0.06645882
1.2820,0.10276702
1.2840,0.11329887
1.2860,0.16974834
1.2880,0.05427282
1.2900,-0.30820400
1.2920,0.07926866
1.2940,0.11077543
1.2960,0.04071406
1.2980,-0.01349415
1.3000,-0.07745394
1.3020,0.14023428
1.3040,-0.12776089
1.3060,0.07239740
1.3080,0.18585616
1.3100,0.11477523
1.3120,-0.00578688
1.3140,-0.06865572
1.3160,-0.01204762
1.3180,0.11914488
1.3200,0.02049753
1.3220,0.18895540
1.3240,-0.06971082
1.3260,0.11550558
1.3280,0.01001644
1.3300,0.23024435
1.3320,-0.02825605
1.3340,-0.13286926
1.3360,0.24391837
1.3380,-0.02315518
1.3400,0.18897814
1.3420,0.20422731
1.3440,-0.12089118
1.3460,-0.02352180
1.3480,0.43953726
1.3500,-0.02496993
1.3520,-0.02262800
1.3540,-0.03693562
1.3560,0.06169223
1.3580,0.18017721
1.3600,-0.00161265
1.3620,0.14026161
1.3640,0.15308394
1.3660,-0.04231716
1.3680,-0.13418543
1.3700,0.19911863
1.3720,0.00633893
1.3740,0.22223157
1.3760,-0.00091097
1.3780,-0.15935180
1.3800,0.08401742
1.3820,-0.01796826
1.3840,0.09210236
1.3860,0.11214834
1.3880,-0.05233394
1.3900,-0.03432360
1.3920,-0.20741244
1.3940,0.07762042
1.3960,-0.11329096
1.3980,0.02202510
1.4000,0.09495953
1.4020,-0.07106195
1.4040,-0.08144291
1.4060,-0.07226017
1.4080,-0.06092917
1.4100,-0.05970342
1.4120,-0.05702545
1.4140,-0.01774239
1.4160,-0.20480552
1.4180,-0.23055737
1.4200,-0.10683435
1.4220,-0.07876576
1.4240,-0.19328004
1.4260,0.06289206
1.4280,-0.06873937
1.4300,-0.12209129
1.4320,-0.18322138
1.4340,0.08119600
1.4360,-0.09285869
1.4380,0.09871680
1.4400,0.02205261
1.4420,0.31905150
1.4440,0.09513271
1.4460,0.14845328
1.4480,-0.07707106
1.4500,0.01967848
1.4520,-0.17351101
1.4540,-0.33671522
1.4560,-0.30240086
1.4580,-0.04736516
1.4600,0.07299418
1.4620,-0.09480066
1.4640,-0.14528435
1.4660,0.17570470
1.4680,0.11366539
1.4700,-0.20484546
1.4720,-0.28168619
1.4740,-0.07505481
1.4760,0.02494510
1.4780,0.02989818
1.4800,-0.09196410
1.4820,-0.06183453
1.4840,-0.00321234
1.4860,-0.34188515
1.4880,-0.21893565
1.4900,-0.14642301
1.4920,-0.17394258
1.4940,-0.05422220
1.4960,0.13757706
1.4980,0.06273832
1.5000,0.34382996
1.5020,-0.24264315
1.5040,-0.38303620
1.5060,-0.35134032
1.5080,-0.39903137
1.5100,-0.15368429
1.5120,-0.22991470
1.5140,-0.05995040
1.5160,0.03669835
1.5180,-0.06419889
1.5200,0.18372551
1.5220,0.15386909
1.5240,-0.07944731
1.5260,0.05255571
1.5280,0.15799634
1.5300,-0.04687621
1.5320,0.02652363
1.5340,0.03678277
1.5360,0.18490425
1.5380,-0.00698634
1.5400,0.06730660
1.5420,-0.23931104
1.5440,-0.03959051
1.5460,-0.01306308
1.5480,0.02785889
1.5500,-0.01675300
1.5520,-0.02893404
1.5540,-0.18335477
1.5560,0.23662938
1.5580,0.17882533
1.5600,-0.27452973
1.5620,-0.19025384
1.5640,-0.02408328
1.5660,-0.07084633
1.5680,-0.15123279
1.5700,-0.15998541
1.5720,-0.14364888
1.5740,-0.06473962
1.5760,0.04606673
1.5780,-0.08475389
1.5800,-0.22677538
1.5820,-0.15235645
1.5840,-0.09682597
1.5860,-0.16737321
1.5880,-0.04899130
1.5900,0.16216815
1.5920,0.19901054
1.5940,-0.27211151
1.5960,0.06113969
1.5980,0.03589639
1.6000,-0.17703064
1.6020,0.12823898
1.6040,0.12995270
1.6060,-0.22955677
1.6080,-0.01212884
1.6100,0.12384417
1.6120,0.01697285
1.6140,0.14134546
1.6160,0.27291858
1.6180,-0.08812536
1.6200,-0.05446102
1.6220,-0.16514003
1.6240,0.12874733
1.6260,0.00154691
1.6280,-0.15069346
1.6300,0.07943922
1.6320,0.01476684
1.6340,-0.03970544
1.6360,0.21683145
1.6380,0.11759621
1.6400,0.14126050
1.6420,-0.06762298
1.6440,0.11831088
1.6460,-0.12149302
1.6480,-0.05793475
1.6500,-0.09363081
1.6520,-0.24904118
1.6540,0.08118025
1.6560,-0.19099115
1.6580,-0.15115395
1.6600,0.05179020
1.6620,-0.01594430
1.6640,0.06568675
1.6660,-0.08933552
1.6680,-0.05951251
1.6700,-0.34187785
1.6720,-0.50173521
1.6740,0.19830880
1.6760,0.18428591
1.6780,0.02675917
1.6800,0.24593128
1.6820,-0.38579524
1.6840,0.07087110
1.6860,0.14431618
1.6880,0.18971224
1.6900,0.33526593
1.6920,0.19476859
1.6940,0.68328047
1.6960,0.29563418
1.6980,-0.12884732
1.7000,-0.14806576
1.7020,-0.28320864
1.7040,-0.07755837
1.7060,0.05143717
1.7080,0.04517999
1.7100,-0.08929789
1.7120,-0.00236679
1.7140,-0.24568860
1.7160,0.23640303
1.7180,0.07542227
1.7200,0.11008036
1.7220,0.54386121
1.7240,0.31001356
1.7260,-0.04539290
1.7280,-0.00599002
1.7300,-0.25835747
1.7320,-0.28068390
1.7340,-0.39449155
1.7360,-0.12194230
1.7380,-0.02223453
1.7400,-0.13014440
1.7420,0.10551424
1.7440,-0.13128011
1.7460,0.01820844
1.7480,0.10884764
1.7500,-0.03137480
1.7520,0.41870657
1.7540,0.24708526
1.7560,0.19208759
1.7580,-0.16596483
1.7600,-0.42681104
1.7620,-0.21020603
1.7640,0.04632873
1.7660,-0.25585240
1.7680,0.20747955
1.7700,0.37050718
1.7720,-0.08852322
1.7740,-0.57386672
1.7760,-0.32958689
1.7780,-0.11576211
1.7800,0.19412845
1.7820,0.12445152
1.7840,0.49888608
1.7860,0.43974572
1.7880,0.09899149
1.7900,0.36775219
1.7920,0.22798663
1.7940,0.32917887
1.7960,0.19334316
1.7980,-0.00586140
1.8000,0.13597310
1.8020,-0.46504766
1.8040,-0.02688688
1.8060,-0.26406401
1.8080,-0.05708650
1.8100,-0.17118427
1.8120,-0.11339259
1.8140,-0.20984648
1.8160,-0.36139733
1.8180,-0.36177999
1.8200,-0.63036853
1.8220,0.13530229
1.8240,-0.16683130
1.8260,0.21758306
1.8280,0.01126089
1.8300,-0.56243777
1.8320,-0.25088897
1.8340,-0.10470188
1.8360,0.50062305
1.8380,0.54071915
1.8400,0.59924418
1.8420,0.59589148
1.8440,0.43726307
1.8460,0.59660411
1.8480,0.33952329
1.8500,0.23739412
1.8520,0.33756405
1.8540,0.08572420
1.8560,-0.37104291
1.8580,-0.45923805
1.8600,-0.36001623
1.8620,0.01788003
1.8640,-0.18715525
1.8660,-0.18029040
1.8680,0.25849196
1.8700,0.00287348
1.8720,-0.02964530
1.8740,-0.16384897
1.8760,-0.13763167
1.8780,-0.03250838
1.8800,-0.01144363
1.8820,0.44660181
1.8840,0.07847036
1.8860,0.45811042
1.8880,0.35006565
1.8900,-0.09940852
1.8920,-0.12315612
1.8940,-0.12303456
1.8960,0.31379324
1.8980,-0.05978031
1.9000,-0.20470673
1.9020,-0.02800227
1.9040,-0.14554618
1.9060,0.06861567
1.9080,-0.11804406
1.9100,-0.35609895
1.9120,0.09674831
1.9140,-0.03182477
1.9160,0.03271643
1.9180,0.09454249
1.9200,0.03364566
1.9220,0.16329154
1.9240,0.09173472
1.9260,-0.33195582
1.9280,-0.09826755
1.9300,0.17671695
1.9320,-0.06665578
1.9340,-0.05852819
1.9360,0.08379393
1.9380,0.19726364
1.9400,-0.00249750
1.9420,0.14828417
1.9440,0.01973580
1.9460,-0.00086187
1.9480,0.02222993
1.9500,0.05530136
1.9520,0.23256692
1.9540,-0.08131468
1.9560,0.09033690
1.9580,0.16301367
1.9600,0.04900714
1.9620,-0.02285225
1.9640,0.15094508
1.9660,0.17454715
1.9680,0.01930971
1.9700,-0.13536954
1.9720,0.22609712
1.9740,0.04022996
1.9760,0.09355818
1.9780,0.23240231
1.9800,0.07114629
1.9820,0.09941847
1.9840,0.12521835
1.9860,0.32744747
1.9880,0.08832367
1.9900,0.03235526
1.9920,0.01981905
1.9940,0.21263158
1.9960,0.10413283
1.9980,0.07405479
2.0000,-0.09513363
2.0020,-0.08146407
2.0040,0.28476298
2.0060,0.06814051
2.0080,0.06027247
2.0100,0.14164038
2.0120,0.04057396
2.0140,-0.04463435
2.0160,-0.16251972
2.0180,-0.00037841
2.0200,0.00044012
2.0220,-0.02141885
2.0240,0.02545727
2.0260,0.04105474
2.0280,-0.12187353
2.0300,-0.22028832
2.0320,0.14662246
2.0340,0.07750898
2.0360,-0.15413077
2.0380,-0.07858836
2.0400,-0.13325189
2.0420,-0.18355036
2.0440,-0.38456818
2.0460,0.14884707
2.0480,0.01755343
2.0500,0.03487014
2.0520,-0.22947063
2.0540,-0.17967021
2.0560,0.00488276
2.0580,-0.40314311
2.0600,0.01609298
2.0620,0.13631125
2.0640,0.22332439
2.0660,-0.12738325
2.0680,-0.03670165
2.0700,0.26879302
2.0720,0.18318981
2.0740,-0.00138372
2.0760,0.26111141
2.0780,0.25927252
2.0800,0.34659970
2.0820,0.02252971
2.0840,-0.06706249
2.0860,0.20558964
2.0880,0.01048031
2.0900,0.22310944
2.0920,0.05018918
2.0940,0.15240401
2.0960,-0.06206730
2.0980,0.23446940
2.1000,0.08266125
2.1020,0.21726632
2.1040,-0.09288379
2.1060,0.13571559
2.1080,0.13177349
2.1100,-0.10571564
2.1120,0.05208832
2.1140,0.18425910
2.1160,-0.15999492
2.1180,0.06073630
2.1200,0.01839127
2.1220,0.17286146
2.1240,0.16296072
2.1260,0.02984599
2.1280,-0.23909028
2.1300,-0.11672233
2.1320,-0.08359847
2.1340,-0.03967291
2.1360,-0.11233903
2.1380,0.04532535
2.1400,-0.10831156
2.1420,-0.09274375
2.1440,-0.21146588
2.1460,-0.12806079
2.1480,-0.05081702
2.1500,-0.11153942
2.1520,0.25502744
2.1540,0.01712281
2.1560,-0.06490170
2.1580,-0.05478602
2.1600,0.06608380
2.1620,0.36845782
2.1640,0.29595789
2.1660,0.02101750
2.1680,0.03623828
2.1700,-0.06202450
2.1720,-0.12655933
2.1740,-0.34799850
2.1760,-0.01608534
2.1780,-0.07631367
2.1800,-0.09624355
2.1820,0.47380856
2.1840,-0.18104313
2.1860,-0.03231213
2.1880,-0.00237676
2.1900,-0.06333911
2.1920,-0.15476730
2.1940,0.26260304
2.1960,0.38868284
2.1980,0.57852113
2.2000,0.08116753
2.2020,-0.41802081
2.2040,-0.57976002
2.2060,-0.26454327
2.2080,0.16624337
2.2100,0.08904899
2.2120,-0.31992862
2.2140,0.01371997
2.2160,-0.24787204
2.2180,-0.51767349
2.2200,0.01065206
2.2220,0.26714039
2.2240,-0.19372694
2.2260,-0.07804190
2.2280,-0.23800439
2.2300,-0.57493114
2.2320,-0.52321619
2.2340,-0.18951599
2.2360,-0.31557757
2.2380,0.16640948
2.2400,-0.06488210
2.2420,0.44122678
2.2440,0.22303446
2.2460,0.11512578
2.2480,-0.00168997
2.2500,-0.26644665
2.2520,0.16738831
2.2540,-0.10463104
2.2560,0.42106092
2.2580,0.17833431
2.2600,-0.02092326
2.2620,0.03493085
2.2640,0.13255230
2.2660,-0.50548559
2.2680,-0.34843367
2.2700,-0.38104561
2.2720,-0.13892217
2.2740,-0.22722283
2.2760,-0.30097994
2.2780,-0.50311148
2.2800,0.15108095
2.2820,-0.03804027
2.2840,0.15141314
2.2860,0.36348426
2.2880,0.31011409
2.2900,0.17503390
2.2920,0.04143436
2.2940,0.20922399
2.2960,0.11151310
2.2980,-0.04788829
2.3000,-0.03619837
2.3020,0.41099033
2.3040,-0.00264229
2.3060,0.15292108
2.3080,-0.09690783
2.3100,0.01652674
2.3120,-0.22766404
2.3140,-0.17748691
2.3160,-0.09477445
2.3180,0.09128532
2.3200,-0.14929207
2.3220,0.50248629
2.3240,0.05625593
2.3260,0.12799604
2.3280,-0.12259339
2.3300,0.04881068
2.3320,-0.13902868
2.3340,-0.05072312
2.3360,-0.16571604
2.3380,-0.36489055
2.3400,-0.09241803
2.3420,-0.24738459
2.3440,0.11621530
2.3460,0.36968496
2.3480,-0.09132543
2.3500,-0.09351019
2.3520,-0.09308676
2.3540,-0.02395885
2.3560,-0.08247840
2.3580,0.05390650
2.3600,-0.11049930
2.3620,-0.08648021
2.3640,0.04436598
2.3660,0.28441378
2.3680,0.01239257
2.3700,0.15999213
2.3720,0.12745935
2.3740,0.05445416
2.3760,-0.02552295
2.3780,-0.10246386
2.3800,0.04761327
2.3820,0.14227045
2.3840,-0.09054836
2.3860,-0.38034996
2.3880,-0.41209462
2.3900,-0.06599484
2.3920,0.00950981
2.3940,0.03100797
2.3960,-0.04651142
2.3980,-0.03483626
2.4000,0.06794417
2.4020,0.13092695
2.4040,-0.24995577
2.4060,-0.07022250
2.4080,-0.38062578
2.4100,-0.30072907
2.4120,0.04985905
2.4140,0.02129411
2.4160,-0.11928794
2.4180,-0.34935701
2.4200,-0.40044844
2.4220,-0.05541080
2.4240,0.39958888
2.4260,0.39569432
2.4280,0.44670263
2.4300,0.15719903
2.4320,-0.16060716
2.4340,0.03406345
2.4360,-0.29767057
2.4380,-0.19887458
2.4400,-0.26944783
2.4420,0.06864918
2.4440,0.15234259
2.4460,-0.36230078
2.4480,-0.33226427
2.4500,0.12285623
2.4520,0.21670121
2.4540,-0.08805363
2.4560,0.02298741
2.4580,0.03483774
2.4600,0.40418780
2.4620,-0.00381642
2.4640,0.03229867
2.4660,0.07387865
2.4680,0.05517810
2.4700,0.13920337
2.4720,0.01162271
2.4740,-0.13469341
2.4760,-0.11712065
2.4780,0.00484000
2.4800,0.12579954
2.4820,0.05345165
2.4840,0.13913269
2.4860,0.13154788
2.4880,-0.10459292
2.4900,-0.09327949
2.4920,-0.06630997
2.4940,0.06450345
2.4960,-0.25382316
2.4980,-0.01271563
2.5000,-0.19675030
2.5020,-0.14590611
2.5040,-0.02962277
2.5060,0.28802341
2.5080,0.21823664
2.5100,-0.11638615
2.5120,-0.14354447
2.5140,-0.06861840
2.5160,-0.15408728
2.5180,-0.01315794
2.5200,-0.00079547
2.5220,0.09350988
2.5240,0.06726345
2.5260,0.11886179
2.5280,0.25348786
2.5300,0.20222893
2.5320,0.15483361
2.5340,-0.13753304
2.5360,0.07733423
2.5380,-0.01908990
2.5400,0.03701919
2.5420,-0.01826471
2.5440,-0.23410699
2.5460,0.16700117
2.5480,0.18382707
2.5500,0.12932289
2.5520,0.17261136
2.5540,0.22539519
2.5560,0.09455223
2.5580,0.24403754
2.5600,-0.06987993
2.5620,-0.03909109
2.5640,-0.14503399
2.5660,-0.30914757
2.5680,0.15320365
2.5700,0.03116746
2.5720,0.25463474
2.5740,0.00110473
2.5760,-0.00609917
2.5780,0.05691558
2.5800,-0.06952082
2.5820,-0.05855247
2.5840,-0.19986117
2.5860,0.12823252
2.5880,0.00888510
2.5900,-0.05564094
2.5920,0.06184738
2.5940,-0.07387231
2.5960,-0.05240978
2.5980,-0.07540158
2.6000,-0.28735486
2.6020,-0.05594995
2.6040,-0.01540049
2.6060,0.12095954
2.6080,-0.14154698
2.6100,-0.11462860
2.6120,-0.07694460
2.6140,-0.35124373
2.6160,0.09773397
2.6180,-0.16214637
2.6200,-0.21798854
2.6220,-0.31741178
2.6240,0.03486530
2.6260,0.06606545
2.6280,-0.06280192
2.6300,-0.20793399
2.6320,-0.14490698
2.6340,-0.06605367
2.6360,0.24005039
2.6380,0.10076401
2.6400,-0.08645063
2.6420,0.22419415
2.6440,0.19325183
2.6460,0.02117335
2.6480,-0.00206672
2.6500,0.23735812
2.6520,0.39307323
2.6540,0.12830469
2.6560,0.39134923
2.6580,0.30342385
2.6600,0.23335858
2.6620,0.30762199
2.6640,-0.03165929
2.6660,-0.37372935
2.6680,-0.17299078
2.6700,-0.30027699
2.6720,-0.09942869
2.6740,-0.40940627
2.6760,-0.36625659
2.6780,-0.06640380
2.6800,-0.15954046
2.6820,-0.11948588
2.6840,0.05174892
2.6860,0.19734964
2.6880,0.00788540
2.6900,0.23216935
2.6920,0.11134424
2.6940,-0.30432984
2.6960,0.23651510
2.6980,0.31780094
2.7000,0.34745923
2.7020,0.55965543
2.7040,0.21699570
2.7060,-0.17226402
2.7080,-0.51553452
2.7100,-0.55303931
2.7120,0.01599933
2.7140,-0.22196792
2.7160,-0.13544537
2.7180,0.14289592
2.7200,0.02149781
2.7220,-0.02475516
2.7240,-0.38049251
2.7260,0.07619178
2.7280,-0.04351544
2.7300,0.07187810
2.7320,-0.57211715
2.7340,-0.49762294
2.7360,-0.33268169
2.7380,-0.52351254
2.7400,-0.28974104
2.7420,-0.44776064
2.7440,0.25488728
2.7460,0.24982189
2.7480,0.33410713
2.7500,0.31239590
2.7520,0.38727540
2.7540,0.25959998
2.7560,0.32026625
2.7580,0.09343511
2.7600,0.03995775
2.7620,0.39406025
2.7640,0.36242780
2.7660,-0.16104373
2.7680,-0.29957518
2.7700,-0.15487689
2.7720,-0.31479004
2.7740,-0.16925141
2.7760,-0.07903792
2.7780,0.09713867
2.7800,-0.21497487
2.7820,-0.03405651
2.7840,0.09437414
2.7860,0.22538655
2.7880,0.09106463
2.7900,-0.25094804
2.7920,-0.20762597
2.7940,0.03684491
2.7960,-0.09443355
2.7980,-0.19809683
2.8000,-0.65371764
2.8020,-0.23996325
2.8040,-0.10350039
2.8060,0.03268216
2.8080,-0.23454647
2.8100,-0.22266011
2.8120,0.39348984
2.8140,-0.14207654
2.8160,-0.23333953
2.8180,0.19914986
2.8200,-0.06496765
2.8220,0.21591698
2.8240,-0.04427247
2.8260,-0.00713175
2.8280,0.16429722
2.8300,0.12396190
2.8320,-0.18113318
2.8340,0.06637531
2.8360,-0.00247502
2.8380,0.07046307
2.8400,0.25560600
2.8420,0.20192291
2.8440,-0.08090477
2.8460,-0.03083078
2.8480,0.16823171
2.8500,0.00671977
2.8520,0.04525436
2.8540,0.32638669
2.8560,-0.04010321
2.8580,0.23199621
2.8600,0.04110914
2.8620,0.15126140
2.8640,0.09858326
2.8660,-0.11990915
2.8680,0.06192037
2.8700,0.11142635
2.8720,0.24510756
2.8740,0.01158352
2.8760,-0.00166012
2.8780,0.04048098
2.8800,0.14783172
2.8820,0.18016121
2.8840,0.10667258
2.8860,-0.03757224
2.8880,0.00573955
2.8900,0.13802108
2.8920,-0.07125098
2.8940,0.21140692
2.8960,-0.06496885
2.8980,-0.01757307
2.9000,-0.01202765
2.9020,-0.04255317
2.9040,0.06424005
2.9060,0.10256019
2.9080,-0.03937915
2.9100,-0.08665686
2.9120,0.01467454
2.9140,-0.13092420
2.9160,-0.02148325
2.9180,-0.00848656
2.9200,0.10822429
2.9220,-0.18993478
2.9240,-0.11772696
2.9260,0.02015979
2.9280,0.18524832
2.9300,-0.04704040
2.9320,-0.11996710
2.9340,-0.19580258
2.9360,-0.04664755
2.9380,-0.16658333
2.9400,0.00425671
2.9420,0.02675869
2.9440,0.09645372
2.9460,0.10407097
2.9480,-0.04232007
2.9500,0.12595803
2.9520,-0.01132888
2.9540,0.22445263
2.9560,0.02326713
2.9580,0.27366465
2.9600,0.15259992
2.9620,-0.29266351
2.9640,-0.07493936
2.9660,-0.09882795
2.9680,0.05673222
2.9700,-0.05028087
2.9720,0.20257607
2.9740,0.25916478
2.9760,-0.04221369
2.9780,-0.19498995
2.9800,-0.09747087
2.9820,0.24310787
2.9840,-0.13343962
2.9860,-0.13756026
2.9880,-0.17521344
2.9900,-0.13342336
2.9920,-0.18210153
2.9940,0.12034154
2.9960,-0.05343010
2.9980,0.08864067
3.0000,-0.19535890
3.0020,0.14855212
3.0040,0.14921901
3.0060,-0.06301136
3.0080,0.05799322
3.0100,0.47174820
3.0120,0.11568246
3.0140,0.29009745
3.0160,0.20336552
3.0180,-0.08104266
3.0200,-0.28977802
3.0220,0.07516707
3.0240,-0.23110823
3.0260,0.03069722
3.0280,-0.14660223
3.0300,-0.03169986
3.0320,-0.00170111
3.0340,0.20857629
3.0360,0.10743430
3.0380,0.29160938
3.0400,0.01554207
3.0420,-0.03495094
3.0440,0.17594399
3.0460,-0.09471972
3.0480,-0.17950390
3.0500,-0.71300453
3.0520,-0.73073292
3.0540,-0.09546496
3.0560,0.00650998
3.0580,-0.13557750
3.0600,-0.05271781
3.0620,-0.01370635
3.0640,0.33751425
3.0660,0.03517469
3.0680,0.42095587
3.0700,0.07578766
3.0720,0.30561572
3.0740,0.32548863
3.0760,0.28787732
3.0780,0.49302551
3.0800,-0.48485687
3.0820,-0.23490885
3.0840,-0.19184208
3.0860,-0.02459415
3.0880,0.29461491
3.0900,0.28759009
3.0920,0.10026410
3.0940,-0.24444437
3.0960,-0.08375466
3.0980,0.03372696
3.1000,0.10175083
3.1020,0.21265915
3.1040,-0.03060094
3.1060,0.24848373
3.1080,0.25690261
3.1100,0.24602795
3.1120,-0.01867812
3.1140,0.18102701
3.1160,-0.61716217
3.1180,-0.66979504
3.1200,-0.18805690
3.1220,-0.06225996
3.1240,-0.04111829
3.1260,-0.08354162
3.1280,0.00515463
3.1300,-0.20526239
3.1320,-0.07272553
3.1340,0.09791828
3.1360,0.16910565
3.1380,0.09304263
3.1400,0.07881261
3.1420,0.25682861
3.1440,-0.24906433
3.1460,0.10951888
3.1480,-0.49289659
3.1500,-0.30255273
3.1520,-0.12756662
3.1540,-0.21919903
3.1560,-0.05529110
3.1580,-0.24665564
3.1600,0.07644738
3.1620,-0.36029324
3.1640,-0.16068318
3.1660,-0.24871242
3.1680,-0.33640444
3.1700,-0.19456792
3.1720,-0.08086076
3.1740,-0.06155975
3.1760,0.26827952
3.1780,0.59722751
3.1800,0.40664208
3.1820,0.64861691
3.1840,0.00935788
3.1860,0.50874031
3.1880,0.48565313
3.1900,0.17393444
3.1920,0.10176012
3.1940,-0.09643846
3.1960,0.03224147
3.1980,-0.04682241
3.2000,-0.30721700
3.2020,-0.23066737
3.2040,-0.35413539
3.2060,-0.42468217
3.2080,-0.55098850
3.2100,-0.51273400
3.2120,-0.55506867
3.2140,-0.36284459
3.2160,0.17603467
3.2180,0.23404378
3.2200,0.46747062
3.2220,0.63112295
3.2240,0.76533419
3.2260,0.56632364
3.2280,0.48764667
3.2300,0.05303799
3.2320,-0.26162860
3.2340,-0.07425660
3.2360,-0.01836827
3.2380,-0.26001874
3.2400,-0.31144428
3.2420,-0.27218804
3.2440,-0.39305905
3.2460,-0.48655578
3.2480,-0.06231793
3.2500,-0.48985806
3.2520,0.26454645
3.2540,0.10270535
3.2560,0.41056088
3.2580,0.55101061
3.2600,0.49012315
3.2620,0.56428134
3.2640,0.30686998
3.2660,0.17419863
3.2680,0.07583828
3.2700,-0.10385699
3.2720,-0.38748321
3.2740,-0.16103689
3.2760,-0.10799092
3.2780,0.11845511
3.2800,0.04808097
3.2820,0.27125183
3.2840,0.18745807
3.2860,-0.18883079
3.2880,-0.10254047
3.2900,0.16369668
3.2920,-0.35742134
3.2940,-0.08215905
3.2960,-0.57487458
3.2980,0.05524217
3.3000,-0.27238548
3.3020,0.19735219
3.3040,0.30211163
3.3060,0.10285106
3.3080,0.64266109
3.3100,-0.04572629
3.3120,-0.23716900
3.3140,-0.05377539
3.3160,0.11388732
3.3180,-0.18450633
3.3200,0.00148207
3.3220,-0.02169425
3.3240,-0.00458108
3.3260,-0.01658273
3.3280,-0.07276706
3.3300,-0.07668673
3.3320,-0.06127270
3.3340,0.13672557
3.3360,-0.02147374
3.3380,-0.08813426
3.3400,-0.03079059
3.3420,-0.06547356
3.3440,0.13509026
3.3460,0.03314038
3.3480,-0.19792980
3.3500,0.08873136
3.3520,-0.06646701
3.3540,0.00128571
3.3560,-0.01385089
3.3580,-0.04669385
3.3600,0.01211898
3.3620,0.03390689
3.3640,0.03120853
3.3660,-0.14123936
3.3680,0.03963723
3.3700,0.05109739
3.3720,0.01501879
3.3740,-0.00376281
3.3760,-0.10725538
3.3780,0.10840958
3.3800,0.02751512
3.3820,-0.07885178
3.3840,0.04693512
3.3860,-0.00104434
3.3880,0.01135166
3.3900,0.07164118
3.3920,0.01177193
3.3940,0.00014723
3.3960,0.11913088
3.3980,0.09675120
3.4000,0.13531879
3.4020,0.08239999
3.4040,-0.02110134
3.4060,0.19829893
3.4080,0.01348868
3.4100,-0.01563614
3.4120,0.08989620
3.4140,0.17755152
3.4160,0.21823895
3.4180,0.14778192
3.4200,0.13596480
3.4220,0.18041065
3.4240,0.05913202
3.4260,0.22499712
3.4280,0.08924994
3.4300,0.14973232
3.4320,0.10161749
3.4340,0.12951668
3.4360,0.19186623
3.4380,0.03670482
3.4400,-0.02371361
3.4420,0.00115649
3.4440,-0.00169104
3.4460,0.20598440
3.4480,0.01393673
3.4500,0.08845933
3.4520,0.01463138
3.4540,-0.01487117
3.4560,0.08014975
3.4580,-0.04358435
3.4600,-0.05455137
3.4620,-0.01925553
3.4640,0.02230823
3.4660,-0.20727351
3.4680,0.02325037
3.4700,-0.12121170
3.4720,0.06248471
3.4740,-0.07360885
3.4760,0.03994647
3.4780,-0.28351527
3.4800,-0.10763035
3.4820,-0.11616216
3.4840,0.02158286
3.4860,-0.08376531
3.4880,-0.10749029
3.4900,-0.06820051
3.4920,0.17888907
3.4940,0.00718969
3.4960,0.10870693
3.4980,0.10295964
3.5000,0.26861095
3.5020,-0.09640198
3.5040,-0.05630612
3.5060,-0.03219147
3.5080,0.01292889
3.5100,0.01608564
3.5120,0.02788456
3.5140,0.07047471
3.5160,0.25801587
3.5180,-0.06591766
3.5200,-0.02288321
3.5220,0.09149387
3.5240,0.17401730
3.5260,0.27441603
3.5280,0.08998860
3.5300,0.08134484
3.5320,0.09298310
3.5340,0.00112006
3.5360,0.20486030
3.5380,-0.07865737
3.5400,0.01259190
3.5420,-0.32232362
3.5440,0.19818377
3.5460,0.01731454
3.5480,0.15500720
3.5500,0.07651076
3.5520,0.13364977
3.5540,0.01741995
3.5560,-0.14218369
3.5580,-0.11392480
3.5600,0.00183495
3.5620,0.05597004
3.5640,-0.22216301
3.5660,-0.17434213
3.5680,-0.60083538
3.5700,-0.33671540
3.5720,-0.43969730
3.5740,-0.42927837
3.5760,-0.07184325
3.5780,-0.18269441
3.5800,0.33711579
3.5820,-0.06102181
3.5840,0.26242024
3.5860,0.32471722
3.5880,0.17861694
3.5900,0.12976722
3.5920,-0.08669749
3.5940,-0.11186573
3.5960,0.12278958
3.5980,0.08950555
3.6000,0.22855590
3.6020,-0.10321073
3.6040,0.02146473
3.6060,-0.29225975
3.6080,0.07315156
3.6100,-0.04236019
3.6120,0.04830668
3.6140,0.01257461
3.6160,0.09945117
3.6180,-0.01561454
3.6200,0.03686334
3.6220,-0.25951043
3.6240,-0.13445184
3.6260,-0.11773623
3.6280,0.25734556
3.6300,0.05639648
3.6320,-0.09480740
3.6340,-0.10770964
3.6360,-0.04443240
3.6380,-0.55863392
3.6400,-0.44756648
3.6420,-0.36335927
3.6440,0.00852364
3.6460,0.04202508
3.6480,-0.00734223
3.6500,0.29424977
3.6520,0.14527729
3.6540,0.07814382
3.6560,0.05199128
3.6580,0.12317163
3.6600,0.27644229
3.6620,0.22331876
3.6640,0.35489020
3.6660,0.36079264
3.6680,0.27577463
3.6700,0.11513367
3.6720,-0.30312479
3.6740,-0.27153075
3.6760,-0.40029478
3.6780,-0.20731659
3.6800,0.05121286
3.6820,0.10511217
3.6840,0.06058929
3.6860,0.07631341
3.6880,-0.16104463
3.6900,0.22386393
3.6920,-0.05639787
3.6940,0.11040255
3.6960,0.16424391
3.6980,0.35640126
3.7000,0.13047352
3.7020,-0.08054979
3.7040,-0.49408111
3.7060,-0.23482156
3.7080,-0.24782266
3.7100,0.03250013
3.7120,-0.28089714
3.7140,0.00166479
3.7160,0.11217987
3.7180,-0.18568222
3.7200,-0.10555261
3.7220,0.49425066
3.7240,0.49972218
3.7260,0.21009824
3.7280,0.25614986
3.7300,0.10261499
3.7320,0.37032890
3.7340,0.00332640
3.7360,-0.09379705
3.7380,0.17877279
3.7400,0.03083853
3.7420,0.23505940
3.7440,0.05424292
3.7460,-0.07453749
3.7480,0.06399135
3.7500,0.23660183
3.7520,0.19968471
3.7540,-0.05434340
3.7560,-0.16834694
3.7580,0.15293044
3.7600,-0.03155014
3.7620,-0.00261598
3.7640,-0.04823443
3.7660,-0.05790964
3.7680,-0.09522700
3.7700,-0.28161657
3.7720,-0.22743180
3.7740,-0.35664308
3.7760,-0.18656363
3.7780,-0.27085847
3.7800,0.16089277
3.7820,0.09154249
3.7840,0.09724548
3.7860,-0.40280825
3.7880,-0.18221167
3.7900,-0.07186162
3.7920,0.31246704
3.7940,0.04658491
3.7960,0.08139213
3.7980,0.06658056
3.8000,0.05868956
3.8020,0.12324098
3.8040,0.11199399
3.8060,0.09518351
3.8080,0.18004638
3.8100,-0.19981007
3.8120,-0.16708098
3.8140,-0.00178354
3.8160,-0.02581223
3.8180,-0.28502214
3.8200,0.14558895
3.8220,-0.15498447
3.8240,-0.06188060
3.8260,0.08183601
3.8280,-0.04058449
3.8300,-0.08678418
3.8320,-0.07287417
3.8340,0.14698517
3.8360,0.13047567
3.8380,-0.24896009
3.8400,0.04058485
3.8420,-0.23512369
3.8440,-0.09768566
3.8460,-0.07917924
3.8480,-0.09151020
3.8500,0.04171166
3.8520,0.16151264
3.8540,-0.05469340
3.8560,0.08083192
3.8580,-0.00210483
3.8600,-0.17033096
3.8620,-0.24576259
3.8640,0.04395168
3.8660,-0.03516563
3.8680,-0.14082417
3.8700,0.12026240
3.8720,0.02683582
3.8740,0.04153771
3.8760,-0.23281591
3.8780,0.17120147
3.8800,0.05045826
3.8820,-0.26158491
3.8840,-0.03848864
3.8860,0.05728287
3.8880,-0.21078499
3.8900,0.12775469
3.8920,0.29306710
3.8940,0.00452056
3.8960,-0.01444599
3.8980,-0.11123626
3.9000,0.10953803
3.9020,-0.02509188
3.9040,-0.09440629
3.9060,-0.09550092
3.9080,-0.09254442
3.9100,-0.16134539
3.9120,0.11631256
3.9140,-0.02759019
3.9160,0.10574508
3.9180,0.01751275
3.9200,-0.28759319
3.9220,-0.00627212
3.9240,0.04995316
3.9260,0.04878581
3.9280,-0.06925618
3.9300,0.07653641
3.9320,0.06132346
3.9340,0.09101381
3.9360,0.07121430
3.9380,-0.15543815
3.9400,-0.00002846
3.9420,0.16394629
3.9440,-0.04237770
3.9460,-0.01336790
3.9480,0.05561541
3.9500,0.10326780
3.9520,0.02612104
3.9540,0.17973097
3.9560,-0.01760592
3.9580,-0.22053128
3.9600,0.11272278
3.9620,0.03493095
3.9640,-0.01321443
3.9660,-0.03302805
3.9680,0.35558462
3.9700,0.23914087
3.9720,0.08929592
3.9740,-0.06049634
3.9760,0.24171299
3.9780,0.17881711
3.9800,0.00128566
3.9820,-0.05329260
3.9840,0.08786496
3.9860,-0.12205342
3.9880,0.20822908
3.9900,0.34631458
3.9920,0.34612006
3.9940,-0.08950986
3.9960,-0.31027496
3.9980,-0.07472032
4.0000,-0.05475825
4.0020,-0.16927712
4.0040,-0.35468531
4.0060,-0.39113393
4.0080,-0.10066394
4.0100,0.11071616
4.0120,-0.19668300
4.0140,-0.16691841
4.0160,0.05987221
4.0180,-0.12562719
4.0200,0.07353232
4.0220,-0.10887980
4.0240,0.10517791
4.0260,0.07753602
4.0280,0.35244197
4.0300,0.13839640
4.0320,0.14454824
4.0340,0.30141327
4.0360,-0.11659488
4.0380,0.03750636
4.0400,0.19156083
4.0420,0.14010090
4.0440,-0.39172214
4.0460,0.02410963
4.0480,-0.05715020
4.0500,-0.02612893
4.0520,0.12132063
4.0540,0.01977365
4.0560,0.21717906
4.0580,-0.30222896
4.0600,-0.00646303
4.0620,0.01917427
4.0640,0.19343752
4.0660,0.16908576
4.0680,-0.32743225
4.0700,-0.13862255
4.0720,-0.50179601
4.0740,-0.27165937
4.0760,-0.02422950
4.0780,0.17353663
4.0800,0.12755951
4.0820,0.16831021
4.0840,-0.04176949
4.0860,-0.26161203
4.0880,-0.25024933
4.0900,-0.18002068
4.0920,-0.28547713
4.0940,0.16782515
4.0960,0.10716642
4.0980,0.10093191
4.1000,-0.09440126
4.1020,0.02575047
4.1040,-0.01113774
4.1060,0.02535930
4.1080,0.19354691
4.1100,-0.04661820
4.1120,0.42083368
4.1140,0.01760606
4.1160,0.01932484
4.1180,0.30748352
4.1200,-0.06675785
4.1220,0.08193837
4.1240,-0.02161232
4.1260,0.13403180
4.1280,-0.01220569
4.1300,0.19673960
4.1320,-0.07852300
4.1340,0.20254152
4.1360,-0.06728039
4.1380,0.06718134
4.1400,-0.01307796
4.1420,0.06555022
4.1440,0.04680376
4.1460,0.10030292
4.1480,-0.17154856
4.1500,0.22269841
4.1520,0.20928736
4.1540,-0.19501147
4.1560,-0.10707324
4.1580,0.05861129
4.1600,-0.20254977
4.1620,0.01644803
4.1640,0.09602460
4.1660,0.18715303
4.1680,-0.14014311
4.1700,-0.09271197
4.1720,-0.10170845
4.1740,0.19928123
4.1760,0.39204109
4.1780,-0.34042796
4.1800,0.08732902
4.1820,-0.10784560
4.1840,0.05647324
4.1860,-0.03651387
4.1880,-0.13761310
4.1900,0.10223642
4.1920,0.10347123
4.1940,-0.18283951
4.1960,0.18982103
4.1980,-0.14647274
4.2000,-0.10888048
4.2020,-0.06874445
4.2040,0.09877598
4.2060,-0.11444189
4.2080,0.13478728
4.2100,0.15206032
4.2120,-0.14699177
4.2140,-0.06449834
4.2160,-0.05686362
4.2180,0.10765065
4.2200,-0.07619706
4.2220,0.14157844
4.2240,-0.03310285
4.2260,0.08422282
4.2280,0.15226747
4.2300,0.39741844
4.2320,0.34761879
4.2340,0.17823714
4.2360,0.40834066
4.2380,0.38047099
4.2400,0.51882094
4.2420,0.13221104
4.2440,0.49712551
4.2460,0.46300417
4.2480,0.04037167
4.2500,-0.34954834
4.2520,-0.17359287
4.2540,-0.23143013
4.2560,-0.37861720
4.2580,-0.35292494
4.2600,-0.30539212
4.2620,-0.08541578
4.2640,0.03406141
4.2660,0.47719175
4.2680,-0.35731173
4.2700,-0.52054685
4.2720,-0.46321082
4.2740,-0.35429940
4.2760,-0.11334587
4.2780,0.08095375
4.2800,0.24672341
4.2820,0.33770546
4.2840,0.41615811
4.2860,0.53279400
4.2880,0.35654771
4.2900,0.37940833
4.2920,0.39035675
4.2940,0.41365036
4.2960,-0.25536543
4.2980,0.24907216
4.3000,-0.01472548
4.3020,-0.10808118
4.3040,-0.12776718
4.3060,0.02525867
4.3080,0.14246003
4.3100,-0.16315007
4.3120,-0.13496567
4.3140,-0.32362267
4.3160,-0.48158607
4.3180,-0.13408288
4.3200,-0.04053769
4.3220,0.01699490
4.3240,-0.28643370
4.3260,0.21379386
4.3280,-0.17296438
4.3300,0.15062410
4.3320,0.31953895
4.3340,-0.07892045
4.3360,0.19687544
4.3380,0.19367099
4.3400,0.15427941
4.3420,-0.33724189
4.3440,-0.54300207
4.3460,-0.17434809
4.3480,0.10064784
4.3500,0.01578438
4.3520,0.19062409
4.3540,-0.01702385
4.3560,-0.09658856
4.3580,0.10370690
4.3600,-0.30775318
4.3620,-0.22826426
4.3640,-0.00873834
4.3660,-0.04487349
4.3680,-0.32249957
4.3700,0.01263144
4.3720,-0.09838367
4.3740,0.01407089
4.3760,0.34604731
4.3780,0.25263509
4.3800,0.12582487
4.3820,0.11094918
4.3840,0.26762792
4.3860,0.21676835
4.3880,0.15793404
4.3900,0.15561321
4.3920,0.22558828
4.3940,0.29981887
4.3960,0.09891710
4.3980,0.12257230
4.4000,0.21986620
4.4020,0.00383798
4.4040,0.12676370
4.4060,0.00202116
4.4080,-0.06059178
4.4100,0.06666045
4.4120,0.11481022
4.4140,-0.06468333
4.4160,0.05107909
4.4180,0.07144566
4.4200,-0.16789883
4.4220,-0.09826922
4.4240,-0.17475250
4.4260,-0.14517054
4.4280,0.13768025
4.4300,0.02437571
4.4320,-0.02782191
4.4340,-0.04502787
4.4360,0.10301309
4.4380,-0.10897494
4.4400,0.05666662
4.4420,-0.00208437
4.4440,-0.22719859
4.4460,-0.26848105
4.4480,-0.01528249
4.4500,-0.16124728
4.4520,0.08068874
4.4540,0.02255959
4.4560,0.11982359
4.4580,-0.10227729
4.4600,0.02813860
4.4620,-0.16715965
4.4640,0.04488892
4.4660,0.04363090
4.4680,-0.07053104
4.4700,0.08183495
4.4720,0.09720235
4.4740,0.10981457
4.4760,0.07369316
4.4780,0.12993607
4.4800,0.26324213
4.4820,-0.12011933
4.4840,-0.08761794
4.4860,0.07858415
4.4880,0.02170276
4.4900,-0.09937610
4.4920,0.01507261
4.4940,-0.11782412
4.4960,0.12222888
4.4980,-0.10299567
4.5000,-0.00137871
4.5020,0.30491287
4.5040,-0.20049830
4.5060,-0.18847284
4.5080,-0.19507921
4.5100,0.05921534
4.5120,-0.25473928
4.5140,-0.10575011
4.5160,-0.11487775
4.5180,-0.04338921
4.5200,-0.04668877
4.5220,-0.23923613
4.5240,0.25272688
4.5260,-0.01425888
4.5280,-0.11672801
4.5300,-0.42528138
4.5320,-0.00690044
4.5340,-0.41860947
4.5360,-0.06221896
4.5380,-0.07233166
4.5400,-0.01917178
4.5420,-0.06245509
4.5440,-0.08040483
4.5460,-0.04181546
4.5480,0.08607095
4.5500,-0.07125899
4.5520,0.27599302
4.5540,0.50990999
4.5560,0.26860538
4.5580,0.38660201
4.5600,0.63493097
4.5620,0.08078659
4.5640,-0.27868742
4.5660,-0.15838473
4.5680,-0.07460239
4.5700,-0.09486192
4.5720,-0.27193686
4.5740,-0.43776679
4.5760,-0.03998721
4.5780,-0.14596331
4.5800,-0.40756798
4.5820,-0.15682440
4.5840,-0.17136076
4.5860,0.41838714
4.5880,0.21971197
4.5900,0.08338467
4.5920,-0.03102678
4.5940,-0.26541388
4.5960,-0.25269204
4.5980,0.53852814
4.6000,0.28059945
4.6020,0.17591909
4.6040,0.19123019
4.6060,0.16360417
4.6080,-0.09120986
4.6100,-0.10649058
4.6120,-0.12650365
4.6140,-0.09666727
4.6160,0.00006617
4.6180,-0.24104559
4.6200,-0.07946653
4.6220,0.20914324
4.6240,0.14608954
4.6260,-0.03484980
4.6280,0.12479158
4.6300,-0.18154159
4.6320,0.21219712
4.6340,0.21863151
4.6360,0.16725355
4.6380,0.11053136
4.6400,0.11856700
4.6420,0.03522728
4.6440,0.27058718
4.6460,-0.04463947
4.6480,-0.22314291
4.6500,0.17631063
4.6520,-0.14577077
4.6540,0.13541514
4.6560,0.13995214
4.6580,0.10855991
4.6600,-0.02224953
4.6620,0.04552332
4.6640,-0.02196418
4.6660,-0.07787976
4.6680,-0.03071620
4.6700,0.02972167
4.6720,-0.06701080
4.6740,-0.00064787
4.6760,0.19573277
4.6780,-0.01682818
4.6800,-0.05901194
4.6820,0.00670128
4.6840,-0.11832611
4.6860,-0.13745148
4.6880,-0.14152302
4.6900,0.30308816
4.6920,0.25450060
4.6940,-0.06646739
4.6960,-0.03399781
4.6980,-0.05586478
4.7000,-0.05883612
4.7020,0.08731797
4.7040,0.26102024
4.7060,0.11550153
4.7080,0.15247728
4.7100,0.12966204
4.7120,0.04307247
4.7140,0.11728464
4.7160,-0.09171461
4.7180,-0.19218402
4.7200,-0.02468967
4.7220,0.04726609
4.7240,0.04595865
4.7260,0.07927806
4.7280,0.15979084
4.7300,-0.26482329
4.7320,0.05465369
4.7340,-0.02064793
4.7360,0.05960191
4.7380,-0.04018282
4.7400,0.15782605
4.7420,-0.12739863
4.7440,0.35085237
4.7460,-0.23062752
4.7480,-0.28228956
4.7500,-0.12438620
4.7520,-0.28436199
4.7540,0.00651453
4.7560,-0.26586834
4.7580,0.08964158
4.7600,0.04648766
4.7620,-0.30062011
4.7640,-0.38482478
4.7660,-0.00777293
4.7680,0.15093642
4.7700,-0.11583775
4.7720,-0.27761647
4.7740,-0.45161149
4.7760,-0.43470722
4.7780,0.14230888
4.7800,0.14182776
4.7820,0.26533702
4.7840,0.64948505
4.7860,-0.21017480
4.7880,0.36056495
4.7900,0.29915938
4.7920,0.49708548
4.7940,0.38101688
4.7960,-0.08342216
4.7980,0.37531534
4.8000,0.36052528
4.8020,0.38307527
4.8040,0.09119861
4.8060,-0.00447392
4.8080,-0.30424452
4.8100,-0.18003815
4.8120,-0.41712680
4.8140,-0.27453834
4.8160,-0.00690406
4.8180,0.09690826
4.8200,-0.18319473
4.8220,-0.12221634
4.8240,-0.07383220
4.8260,-0.36734387
4.8280,-0.34165570
4.8300,-0.15973186
4.8320,0.03151825
4.8340,0.16210437
4.8360,0.28734252
4.8380,0.37900990
4.8400,0.40807715
4.8420,0.15018712
4.8440,0.03055689
4.8460,-0.17182419
4.8480,0.34373730
4.8500,0.16982877
4.8520,-0.18946655
4.8540,-0.04403828
4.8560,-0.23281470
4.8580,-0.26832229
4.8600,-0.13188997
4.8620,-0.10442716
4.8640,0.02363363
4.8660,-0.21752474
4.8680,0.19155371
4.8700,0.02714944
4.8720,-0.41343942
4.8740,-0.09733857
4.8760,-0.09361261
4.8780,-0.20802727
4.8800,0.00537549
4.8820,0.19529405
4.8840,0.15147528
4.8860,0.21580943
4.8880,0.15482534
4.8900,-0.12028381
4.8920,0.15946205
4.8940,0.31442046
4.8960,-0.15507598
4.8980,0.03801045
4.9000,0.05019162
4.9020,0.09668051
4.9040,0.14180847
4.9060,-0.10777851
4.9080,0.19585536
4.9100,0.10668268
4.9120,0.08522522
4.9140,-0.00940591
4.9160,-0.04174389
4.9180,0.05516346
4.9200,-0.10417714
4.9220,-0.10636937
4.9240,0.08724476
4.9260,-0.41635054
4.9280,-0.23066565
4.9300,-0.03210412
4.9320,-0.28290731
4.9340,0.08115322
4.9360,-0.01313339
4.9380,-0.26656801
4.9400,0.13750064
4.9420,0.17867595
4.9440,-0.00137914
4.9460,-0.10167222
4.9480,-0.03758841
4.9500,-0.18619131
4.9520,-0.23249438
4.9540,0.20344698
4.9560,-0.28233349
4.9580,0.06285077
4.9600,0.04895709
4.9620,-0.00905310
4.9640,0.10758842
4.9660,0.06779091
4.9680,0.05259275
4.9700,-0.04891898
4.9720,-0.01169217
4.9740,0.08187176
4.9760,0.00731635
4.9780,0.10604569
4.9800,-0.02863468
4.9820,0.16740341
4.9840,0.21280058
4.9860,0.10530780
4.9880,0.23415020
4.9900,0.12482981
4.9920,0.13894571
4.9940,0.01773865
4.9960,0.11726100
4.9980,0.03875114
5.0000,0.26247808
5.0020,-0.02336474
5.0040,-0.22094445
5.0060,0.20720926
5.0080,0.04513947
5.0100,0.40482724
5.0120,0.03847871
5.0140,-0.13502352
5.0160,-0.06532914
5.0180,0.04731054
5.0200,0.19221579
5.0220,-0.16311181
5.0240,-0.07519094
5.0260,-0.05765218
5.0280,0.12098131
5.0300,0.18293348
5.0320,-0.05623176
5.0340,-0.15140331
5.0360,-0.02629810
5.0380,0.01148021
5.0400,0.04909708
5.0420,-0.09184929
5.0440,0.14488576
5.0460,-0.09287795
5.0480,-0.25035071
5.0500,-0.13865015
5.0520,-0.10197251
5.0540,0.02226487
5.0560,0.14960510
5.0580,-0.15254723
5.0600,-0.04204955
5.0620,-0.03323543
5.0640,-0.08600718
5.0660,-0.16846801
5.0680,0.01054962
5.0700,-0.10878775
5.0720,0.11789182
5.0740,0.19729108
5.0760,0.04601302
5.0780,-0.15824981
5.0800,0.19447637
5.0820,-0.04759282
5.0840,0.02741845
5.0860,0.20149276
5.0880,0.08390590
5.0900,0.13399072
5.0920,-0.03546799
5.0940,0.03196965
5.0960,0.08749598
5.0980,0.10015810
5.1000,0.01231092
5.1020,0.16520579
5.1040,0.04616929
5.1060,-0.11682072
5.1080,0.07006522
5.1100,-0.09736460
5.1120,0.17949475
5.1140,0.08822462
5.1160,-0.13237636
5.1180,-0.19889620
5.1200,0.27769241
5.1220,0.07137352
5.1240,-0.31583831
5.1260,-0.03065004
5.1280,-0.18133627
5.1300,0.19388993
5.1320,0.03287918
5.1340,-0.08007727
5.1360,0.04935261
5.1380,-0.05720245
5.1400,-0.01620965
5.1420,-0.17604949
5.1440,0.20611304
5.1460,-0.20494574
5.1480,-0.10588951
5.1500,-0.11532583
5.1520,-0.23280725
5.1540,0.02310830
5.1560,-0.01779452
5.1580,0.07976944
5.1600,0.02341884
5.1620,0.29984188
5.1640,0.31632268
5.1660,-0.06258809
5.1680,-0.03367397
5.1700,0.00987541
5.1720,-0.25981316
5.1740,-0.28684962
5.1760,0.01312202
5.1780,-0.19875696
5.1800,-0.18551405
5.1820,0.05708144
5.1840,-0.24757195
5.1860,-0.03555566
5.1880,0.17851256
5.1900,-0.07042065
5.1920,-0.10197631
5.1940,-0.40106171
5.1960,0.37616357
5.1980,0.08033923
5.2000,0.28173050
5.2020,-0.00489907
5.2040,-0.01087353
5.2060,0.02569159
5.2080,-0.22493105
5.2100,-0.13664195
5.2120,-0.11435959
5.2140,0.08257855
5.2160,-0.25375000
5.2180,-0.45685545
5.2200,0.14873065
5.2220,-0.03961879
5.2240,0.14233741
5.2260,-0.18022917
5.2280,0.14376415
5.2300,0.19913477
5.2320,0.09117098
5.2340,0.06990714
5.2360,0.18773346
5.2380,-0.24020490
5.2400,-0.05084503
5.2420,0.11722971
5.2440,0.12060989
5.2460,0.23052479
5.2480,0.04258479
5.2500,0.04249293
5.2520,-0.05359051
5.2540,0.02358358
5.2560,0.14946677
5.2580,0.36064348
5.2600,-0.13109641
5.2620,0.01340623
5.2640,-0.43375754
5.2660,-0.23342848
5.2680,-0.33215913
5.2700,-0.28525430
5.2720,0.12488949
5.2740,0.42815369
5.2760,0.33355296
5.2780,0.11469708
5.2800,-0.24470846
5.2820,-0.31295851
5.2840,-0.32865465
5.2860,0.02681128
5.2880,0.18299656
5.2900,0.35158122
5.2920,0.09857178
5.2940,0.61421698
5.2960,0.29486674
5.2980,0.38035172
5.3000,0.29672557
5.3020,0.18045612
5.3040,0.09342597
5.3060,0.10588465
5.3080,0.22429618
5.3100,0.01248448
5.3120,-0.50296837
5.3140,-0.52078366
5.3160,-0.44437829
5.3180,-0.38860303
5.3200,-0.43117335
5.3220,-0.32920122
5.3240,-0.34145811
5.3260,-0.11322125
5.3280,0.16246496
5.3300,-0.21075395
5.3320,0.26062772
5.3340,0.16746473
5.3360,0.53991610
5.3380,0.24450086
5.3400,0.16635877
5.3420,0.60513651
5.3440,0.50979561
5.3460,0.39457273
5.3480,-0.03590249
5.3500,-0.22752371
5.3520,-0.32813534
5.3540,-0.16616791
5.3560,-0.18285310
5.3580,-0.04991667
5.3600,-0.09524240
5.3620,0.06761154
5.3640,-0.10812280
5.3660,-0.15606150
5.3680,0.08478387
5.3700,-0.12929633
5.3720,-0.12060381
5.3740,-0.26996979
5.3760,-0.05879523
5.3780,0.14964929
5.3800,0.27392402
5.3820,0.04653377
5.3840,0.11715984
5.3860,0.09503913
5.3880,0.12980853
5.3900,0.02987976
5.3920,-0.18143119
5.3940,-0.07671072
5.3960,0.10727615
5.3980,0.17658556
5.4000,0.04875993
5.4020,0.12535439
5.4040,0.35136175
5.4060,0.29491210
5.4080,0.26546285
5.4100,0.16465273
5.4120,0.08756517
5.4140,0.20908479
5.4160,0.00838953
5.4180,0.09989762
5.4200,0.05777753
5.4220,0.08967297
5.4240,0.20257893
5.4260,-0.00791583
5.4280,0.09983578
5.4300,0.01395412
5.4320,0.19538726
5.4340,-0.21564840
5.4360,0.24646966
5.4380,-0.01346233
5.4400,-0.12529269
5.4420,0.04712068
5.4440,0.04131620
5.4460,-0.17600799
5.4480,-0.07972682
5.4500,0.08382510
5.4520,-0.06638786
5.4540,0.09223380
5.4560,-0.01905120
5.4580,0.00077154
5.4600,-0.23968847
5.4620,0.07824335
5.4640,0.03541169
5.4660,-0.20724671
5.4680,-0.00561687
5.4700,-0.09433947
5.4720,0.00770310
5.4740,-0.17577574
5.4760,-0.19434302
5.4780,0.14668421
5.4800,-0.21512395
5.4820,-0.03849773
5.4840,-0.03104534
5.4860,-0.07543979
5.4880,0.06231566
5.4900,0.06628444
5.4920,0.08034390
5.4940,-0.17704089
5.4960,-0.10257464
5.4980,-0.19788051
5.5000,-0.19163743
5.5020,0.11456361
5.5040,-0.10111419
5.5060,0.09295459
5.5080,0.01442798
5.5100,-0.05328071
5.5120,0.13493049
5.5140,-0.12237253
5.5160,0.15620245
5.5180,-0.01109415
5.5200,0.00704212
5.5220,-0.03276040
5.5240,0.12564568
5.5260,-0.17105839
5.5280,0.15558141
5.5300,0.28670660
5.5320,0.14196560
5.5340,0.01952915
5.5360,-0.09763101
5.5380,0.08753416
5.5400,0.09596035
5.5420,0.09674333
5.5440,0.13110942
5.5460,0.24406120
5.5480,0.13634653
5.5500,0.16644669
5.5520,0.12455040
5.5540,-0.18482363
5.5560,-0.10692696
5.5580,0.04215223
5.5600,-0.02124817
5.5620,-0.07231059
5.5640,0.31926045
5.5660,-0.04423773
5.5680,-0.09059380
5.5700,-0.03213022
5.5720,-0.16149268
5.5740,0.16539666
5.5760,0.18488848
5.5780,-0.13714361
5.5800,-0.49390614
5.5820,-0.16486290
5.5840,0.09990485
5.5860,-0.03492587
5.5880,-0.11303913
5.5900,-0.04501271
5.5920,0.06676815
5.5940,-0.05959341
5.5960,-0.01934774
5.5980,-0.17975096
5.6000,-0.02911654
5.6020,0.04216767
5.6040,0.06999850
5.6060,-0.07408892
5.6080,-0.11525972
5.6100,-0.18033113
5.6120,0.05351373
5.6140,0.17703155
5.6160,0.17542243
5.6180,0.04562387
5.6200,0.03607283
5.6220,0.20008683
5.6240,-0.16544108
5.6260,0.02168998
5.6280,0.48893556
5.6300,-0.06278418
5.6320,0.44008905
5.6340,0.15018795
5.6360,-0.07649153
5.6380,0.00565110
5.6400,-0.03279241
5.6420,-0.05885578
5.6440,0.08273821
5.6460,0.00907811
5.6480,0.01800351
5.6500,0.18307523
5.6520,-0.29659787
5.6540,-0.14916250
5.6560,-0.16834646
5.6580,-0.24555044
5.6600,0.14504908
5.6620,-0.04273726
5.6640,0.23058638
5.6660,0.12686077
5.6680,-0.17987481
5.6700,-0.62681317
5.6720,-0.20069955
5.6740,-0.13784571
5.6760,0.11239957
5.6780,-0.02045609
5.6800,-0.30770919
5.6820,-0.29947755
5.6840,-0.31923568
5.6860,-0.03801772
5.6880,0.07058693
5.6900,-0.04622225
5.6920,0.11494295
5.6940,-0.10689815
5.6960,0.00404942
5.6980,-0.11244747
5.7000,-0.07593912
5.7020,0.12356573
5.7040,0.13809694
5.7060,0.10540581
5.7080,0.04133934
5.7100,0.22227894
5.7120,-0.08590536
5.7140,-0.35189280
5.7160,-0.31877708
5.7180,-0.32139435
5.7200,-0.13029703
5.7220,-0.13830435
5.7240,-0.17119971
5.7260,-0.09786788
5.7280,-0.20103554
5.7300,-0.46726656
5.7320,-0.42732817
5.7340,-0.50556898
5.7360,-0.08882569
5.7380,-0.18261413
5.7400,-0.22017449
5.7420,0.03298302
5.7440,0.51767641
5.7460,0.13176845
5.7480,0.14314647
5.7500,0.36745718
5.7520,0.15940948
5.7540,0.15693495
5.7560,0.16687810
5.7580,0.09435328
5.7600,0.37887296
5.7620,0.08415059
5.7640,0.15431057
5.7660,-0.10348801
5.7680,-0.08943132
5.7700,0.11199155
5.7720,0.05912572
5.7740,-0.04558993
5.7760,0.17775862
5.7780,0.26203099
5.7800,0.24022293
5.7820,0.06316141
5.7840,-0.02541323
5.7860,-0.01981447
5.7880,-0.21517372
5.7900,0.11806374
5.7920,-0.04695754
5.7940,0.04911600
5.7960,-0.10824373
5.7980,-0.04492133
5.8000,-0.01439503
5.8020,0.50979364
5.8040,0.04472904
5.8060,-0.04694807
5.8080,0.06856110
5.8100,0.06004633
5.8120,0.06860197
5.8140,-0.13017455
5.8160,-0.18749177
5.8180,-0.03422178
5.8200,0.10628476
5.8220,0.10033613
5.8240,-0.01101576
5.8260,0.03237516
5.8280,-0.11415693
5.8300,-0.22196434
5.8320,0.09764203
5.8340,0.06607264
5.8360,0.19802378
5.8380,0.18215434
5.8400,-0.33609146
5.8420,0.00329590
5.8440,0.08292750
5.8460,0.19075572
5.8480,0.03120804
5.8500,-0.05379377
5.8520,-0.02139581
5.8540,0.12306247
5.8560,0.14937232
5.8580,-0.09859555
5.8600,-0.03905092
5.8620,0.19909312
5.8640,0.12671080
5.8660,-0.02927290
5.8680,0.22879256
5.8700,0.09512429
5.8720,-0.17023750
5.8740,-0.04043347
5.8760,0.07531009
5.8780,0.01974545
5.8800,-0.23157506
5.8820,0.00414186
5.8840,0.11430151
5.8860,-0.01767321
5.8880,-0.07522216
5.8900,0.01905232
5.8920,0.16056253
5.8940,-0.00379090
5.8960,-0.11394567
5.8980,-0.13995144
5.9000,-0.18634425
5.9020,-0.20783292
5.9040,0.00174086
5.9060,-0.33519456
5.9080,-0.65709519
5.9100,-0.31279081
5.9120,-0.26453677
5.9140,-0.23713805
5.9160,-0.27941021
5.9180,-0.20164679
5.9200,-0.20416899
5.9220,0.21371549
5.9240,0.07890119
5.9260,0.11960556
5.9280,-0.01643763
5.9300,0.47171646
5.9320,0.24799022
5.9340,-0.01140915
5.9360,0.25866428
5.9380,0.02357506
5.9400,0.29298806
5.9420,0.20425224
5.9440,-0.08547234
5.9460,-0.15621933
5.9480,-0.26996613
5.9500,-0.22564217
5.9520,-0.07552403
5.9540,0.08151555
5.9560,0.21214817
5.9580,-0.04074680
5.9600,0.03550531
5.9620,0.29934868
5.9640,-0.12600033
5.9660,-0.40488899
5.9680,-0.11698156
5.9700,-0.08525276
5.9720,0.09434870
5.9740,0.19040048
5.9760,0.20480460
5.9780,0.27460027
5.9800,-0.42351812
5.9820,-0.34179994
5.9840,-0.20868270
5.9860,-0.18630977
5.9880,-0.25374693
5.9900,-0.00236124
5.9920,0.00623959
5.9940,0.01320576
5.9960,-0.12310509
5.9980,-0.62311393
6.0000,-0.01323437
6.0020,0.13592362
6.0040,-0.20658025
6.0060,-0.13048092
6.0080,-0.09210466
6.0100,-0.01414358
6.0120,-0.07901456
6.0140,0.08617923
6.0160,0.20198269
6.0180,-0.14750206
6.0200,-0.02942810
6.0220,-0.16667369
6.0240,-0.00553375
6.0260,0.12426388
6.0280,0.16854893
6.0300,0.08189415
6.0320,0.06305740
6.0340,-0.09479398
6.0360,0.42627066
6.0380,-0.27864558
6.0400,-0.22554804
6.0420,0.00529242
6.0440,-0.06496986
6.0460,0.29831845
6.0480,-0.06752027
6.0500,0.08038986
6.0520,0.00567958
6.0540,-0.16480486
6.0560,-0.17611386
6.0580,0.00394349
6.0600,-0.04314623
6.0620,-0.19470297
6.0640,-0.08199925
6.0660,-0.21838088
6.0680,0.18074645
6.0700,0.03746270
6.0720,-0.14030635
6.0740,-0.20634426
6.0760,-0.36772349
6.0780,-0.17883879
6.0800,0.06167227
6.0820,-0.12183012
6.0840,-0.36982584
6.0860,-0.00766513
6.0880,-0.08695336
6.0900,-0.01261984
6.0920,0.01273913
6.0940,0.26719975
6.0960,0.08690210
6.0980,0.33693349
6.1000,0.22958000
6.1020,0.57554394
6.1040,-0.10261556
6.1060,-0.07863443
6.1080,0.06642877
6.1100,0.27693227
6.1120,-0.16507302
6.1140,-0.32183465
6.1160,-0.28643438
6.1180,-0.21792307
6.1200,-0.14400648
6.1220,0.06882166
6.1240,0.15550148
6.1260,0.02938612
6.1280,-0.07808859
6.1300,-0.11692868
6.1320,-0.15505823
6.1340,-0.03295082
6.1360,-0.10192520
6.1380,-0.13164966
6.1400,-0.29930142
6.1420,0.33517581
6.1440,0.19547492
6.1460,0.11320554
6.1480,0.17815439
6.1500,0.22535735
6.1520,0.19758348
6.1540,0.43400106
6.1560,0.29594049
6.1580,0.55945778
6.1600,0.52414852
6.1620,0.15793556
6.1640,0.03440567
6.1660,0.06598552
6.1680,-0.03306238
6.1700,-0.12363740
6.1720,0.01140799
6.1740,-0.02478551
6.1760,0.01917821
6.1780,0.03609380
6.1800,-0.11848833
6.1820,0.17541610
6.1840,-0.02321432
6.1860,0.24139912
6.1880,0.19378249
6.1900,0.04346943
6.1920,-0.39588511
6.1940,-0.11075384
6.1960,0.27714083
6.1980,0.01595665
6.2000,-0.00476701
6.2020,0.22486752
6.2040,-0.01390765
6.2060,0.10102795
6.2080,-0.00036238
6.2100,0.22097822
6.2120,-0.09074966
6.2140,0.20517470
6.2160,-0.11541332
6.2180,0.13032819
6.2200,-0.00039764
6.2220,-0.08054803
6.2240,-0.03264292
6.2260,-0.19311570
6.2280,0.31543931
6.2300,0.16958112
6.2320,0.07973043
6.2340,-0.04962112
6.2360,-0.41745061
6.2380,0.05937439
6.2400,-0.12239850
6.2420,-0.07621278
6.2440,0.07259622
6.2460,0.03283945
6.2480,-0.09782985
6.2500,0.00045411
6.2520,0.10625214
6.2540,0.08292573
6.2560,0.13773571
6.2580,0.18022978
6.2600,0.14056908
6.2620,0.22459081
6.2640,0.02361920
6.2660,-0.04028130
6.2680,0.05683258
6.2700,-0.05513205
6.2720,0.00925165
6.2740,-0.06029829
6.2760,0.32033819
6.2780,0.02854680
6.2800,0.09969387
6.2820,0.03850294
6.2840,-0.22195525
6.2860,0.04155755
6.2880,0.26047364
6.2900,-0.15046835
6.2920,0.06846693
6.2940,-0.03141752
6.2960,0.07080676
6.2980,-0.02716125
6.3000,-0.16462685
6.3020,0.12011234
6.3040,0.11687636
6.3060,-0.11035044
6.3080,-0.06960506
6.3100,0.12824257
6.3120,-0.17471643
6.3140,-0.04147324
6.3160,0.02461500
6.3180,0.01263058
6.3200,0.04010824
6.3220,-0.01198148
6.3240,-0.01132734
6.3260,-0.01784994
6.3280,-0.01140715
6.3300,-0.06292680
6.3320,0.05671998
6.3340,0.02137495
6.3360,-0.13537019
6.3380,0.12861200
6.3400,-0.06608231
6.3420,0.14825714
6.3440,0.05280323
6.3460,0.15660845
6.3480,0.10664094
6.3500,-0.12860309
6.3520,0.03012736
6.3540,0.17170051
6.3560,0.09085799
6.3580,0.00088088
6.3600,0.05174173
6.3620,0.27103105
6.3640,0.13396709
6.3660,-0.06451680
6.3680,0.15682302
6.3700,0.13505466
6.3720,0.23695663
6.3740,0.03091189
6.3760,-0.04989577
6.3780,0.18380113
6.3800,0.09121794
6.3820,0.11642562
6.3840,0.09752168
6.3860,-0.07081304
6.3880,0.14016184
6.3900,-0.02043530
6.3920,-0.00624101
6.3940,0.02698910
6.3960,0.06296413
6.3980,0.00855137
6.4000,0.19448584
6.4020,-0.09283817
6.4040,0.03807134
6.4060,-0.03518999
6.4080,0.01230495
6.4100,-0.15043442
6.4120,-0.00492031
6.4140,0.13204423
6.4160,0.00294468
6.4180,-0.33170438
6.4200,-0.26098382
6.4220,0.03113375
6.4240,-0.23783286
6.4260,-0.05942151
6.4280,-0.05899604
6.4300,-0.19837634
6.4320,-0.00186002
6.4340,-0.09244581
6.4360,-0.11641168
6.4380,-0.19144729
6.4400,0.24100420
6.4420,0.00582745
6.4440,0.15310124
6.4460,0.03586418
6.4480,-0.02697941
6.4500,-0.28135127
6.4520,-0.09071256
6.4540,-0.07953094
6.4560,-0.03788158
6.4580,-0.00928555
6.4600,-0.22861443
6.4620,-0.16537024
6.4640,0.02123719
6.4660,0.02165439
6.4680,-0.14504406
6.4700,-0.23635978
6.4720,-0.19600631
6.4740,0.03123113
6.4760,-0.16233733
6.4780,0.05884879
6.4800,0.30585533
6.4820,0.11444341
6.4840,0.10277835
6.4860,0.18590529
6.4880,0.22013289
6.4900,0.16316968
6.4920,0.44404781
6.4940,0.01820986
6.4960,0.06142260
6.4980,0.16163537
6.5000,-0.08485872
6.5020,-0.06961611
6.5040,0.06082985
6.5060,0.03982322
6.5080,0.05164575
6.5100,0.03789853
6.5120,-0.05070077
6.5140,0.43741524
6.5160,0.34562674
6.5180,0.05285858
6.5200,-0.01455740
6.5220,0.03369203
6.5240,-0.10939793
6.5260,-0.50091898
6.5280,0.14282401
6.5300,-0.22814547
6.5320,-0.34299955
6.5340,-0.26456469
6.5360,-0.10211725
6.5380,-0.23337053
6.5400,0.09733076
6.5420,-0.20414357
6.5440,-0.46493748
6.5460,-0.12247474
6.5480,-0.17429541
6.5500,0.04998821
6.5520,-0.06347782
6.5540,-0.10404976
6.5560,0.02897898
6.5580,-0.03935661
6.5600,0.06284752
6.5620,0.37147954
6.5640,0.54390413
6.5660,0.37282392
6.5680,0.42294854
6.5700,0.27873531
6.5720,0.19316810
6.5740,0.52513528
6.5760,0.42805290
6.5780,0.15358530
6.5800,0.23824641
6.5820,-0.31298205
6.5840,-0.01898653
6.5860,-0.14773864
6.5880,0.02142572
6.5900,-0.02355953
6.5920,0.12259621
6.5940,0.14172821
6.5960,-0.21458921
6.5980,-0.00176093
6.6000,0.04271702
6.6020,-0.26077929
6.6040,0.16090029
6.6060,-0.10868116
6.6080,0.22158375
6.6100,0.18877849
6.6120,-0.05153485
6.6140,-0.60911655
6.6160,-0.36200693
6.6180,-0.01200450
6.6200,-0.03446021
6.6220,-0.11200126
6.6240,0.16102251
6.6260,-0.04935585
6.6280,-0.32208577
6.6300,-0.22775458
6.6320,0.07986756
6.6340,-0.12310649
6.6360,0.10142373
6.6380,0.43411762
6.6400,0.20644180
6.6420,0.18286020
6.6440,0.14136992
6.6460,0.13850366
6.6480,0.22247769
6.6500,0.04151508
6.6520,-0.01883669
6.6540,0.08166900
6.6560,0.28222474
6.6580,0.10040092
6.6600,-0.13020690
6.6620,0.11332127
6.6640,0.09627942
6.6660,-0.01478137
6.6680,0.19138771
6.6700,-0.00349784
6.6720,0.04801089
6.6740,0.00458316
6.6760,-0.03179846
6.6780,0.04886541
6.6800,0.03783506
6.6820,0.02318977
6.6840,-0.07443988
6.6860,-0.03466941
6.6880,-0.04395077
6.6900,0.15921989
6.6920,-0.11872080
6.6940,-0.13395260
6.6960,0.01510041
6.6980,-0.12704338
6.7000,0.05728411
6.7020,-0.16594765
6.7040,0.01540728
6.7060,0.00836556
6.7080,-0.04720665
6.7100,-0.11960350
6.7120,0.02890882
6.7140,0.04872596
6.7160,-0.31785324
6.7180,0.04315163
6.7200,0.06505401
6.7220,-0.05236332
6.7240,-0.10652326
6.7260,-0.26649088
6.7280,0.17852083
6.7300,-0.04497661
6.7320,-0.09518748
6.7340,-0.12199003
6.7360,0.16616482
6.7380,-0.00969497
6.7400,-0.01362989
6.7420,0.01625361
6.7440,0.00528118
6.7460,0.05701976
6.7480,0.09758574
6.7500,-0.08129577
6.7520,-0.02285807
6.7540,-0.00018873
6.7560,0.09555704
6.7580,0.09012964
6.7600,-0.15160228
6.7620,0.14453019
6.7640,0.04383369
6.7660,0.14115165
6.7680,0.06879348
6.7700,-0.28407976
6.7720,0.16166832
6.7740,0.04262826
6.7760,0.13909739
6.7780,-0.16479576
6.7800,0.07671561
6.7820,-0.04511843
6.7840,0.05119621
6.7860,-0.00456985
6.7880,-0.02108435
6.7900,0.16421062
6.7920,0.16013189
6.7940,-0.03194273
6.7960,-0.01157945
6.7980,-0.25497785
6.8000,-0.02803833
6.8020,-0.20460467
6.8040,-0.03313093
6.8060,-0.13648458
6.8080,-0.11178602
6.8100,-0.21801439
6.8120,-0.12463342
6.8140,-0.05283647
6.8160,-0.31359079
6.8180,0.05932471
6.8200,-0.06766900
6.8220,-0.02239405
6.8240,-0.10005412
6.8260,-0.02809839
6.8280,0.03967828
6.8300,0.14251816
6.8320,0.05785598
6.8340,-0.04174331
6.8360,-0.17535928
6.8380,0.08406375
6.8400,-0.20915818
6.8420,-0.06083405
6.8440,-0.06695367
6.8460,-0.03914192
6.8480,0.17908520
6.8500,0.17001234
6.8520,-0.35477430
6.8540,-0.00170273
6.8560,-0.25404102
6.8580,-0.04791064
6.8600,-0.15650795
6.8620,0.05535397
6.8640,0.19625802
6.8660,0.22682646
6.8680,0.18368956
6.8700,0.37066403
6.8720,0.13402182
6.8740,0.20841515
6.8760,0.12959749
6.8780,-0.01300406
6.8800,0.30328143
6.8820,0.10333311
6.8840,0.02741747
6.8860,0.05233808
6.8880,-0.06906017
6.8900,-0.08609951
6.8920,-0.08164547
6.8940,-0.01106704
6.8960,-0.13782129
6.8980,0.34315124
6.9000,0.28353027
6.9020,-0.01157160
6.9040,0.09361175
6.9060,-0.30418575
6.9080,0.03656546
6.9100,-0.11514004
6.9120,-0.09927007
6.9140,-0.07578576
6.9160,-0.05088221
6.9180,-0.13825041
6.9200,-0.02153716
6.9220,0.05913588
6.9240,-0.04393596
6.9260,-0.13649923
6.9280,-0.05772502
6.9300,-0.15765695
6.9320,-0.19775796
6.9340,-0.02804958
6.9360,-0.02374736
6.9380,-0.25765830
6.9400,0.00859238
6.9420,0.14574902
6.9440,0.22412865
6.9460,0.15396482
6.9480,0.07858703
6.9500,0.18022385
6.9520,0.05586789
6.9540,0.05444571
6.9560,0.08346923
6.9580,-0.28120574
6.9600,-0.13022138
6.9620,-0.24495266
6.9640,-0.07291145
6.9660,0.08093726
6.9680,0.01080788
6.9700,-0.12823409
6.9720,0.00360536
6.9740,0.06615176
6.9760,0.06266557
6.9780,0.17942418
6.9800,0.06488104
6.9820,0.26349047
6.9840,-0.00547061
6.9860,0.21209395
6.9880,0.15543194
6.9900,-0.04328769
6.9920,0.00653555
6.9940,-0.16374382
6.9960,-0.07731036
6.9980,-0.16224779
7.0000,0.04716303
7.0020,0.14431927
7.0040,0.36848789
7.0060,0.00148456
7.0080,-0.07531475
7.0100,0.02037091
7.0120,0.01227527
7.0140,-0.13450547
7.0160,-0.13928053
7.0180,-0.14029571
7.0200,-0.19423161
7.0220,-0.13071726
7.0240,-0.18389565
7.0260,-0.15278243
7.0280,-0.01589802
7.0300,-0.01772251
7.0320,0.38227481
7.0340,-0.07557168
7.0360,0.29412863
7.0380,-0.03346146
7.0400,0.09299169
7.0420,0.13518152
7.0440,-0.01348745
7.0460,0.00248852
7.0480,-0.25618756
7.0500,-0.06971845
7.0520,-0.15484317
7.0540,0.18107244
7.0560,0.07309206
7.0580,-0.11403582
7.0600,0.00091194
7.0620,-0.32766235
7.0640,-0.15929350
7.0660,-0.28856975
7.0680,-0.53131413
7.0700,-0.41405588
7.0720,-0.25563511
7.0740,0.08939319
7.0760,-0.38512141
7.0780,-0.13974738
7.0800,-0.11784341
7.0820,0.39985666
7.0840,-0.05035343
7.0860,0.10599864
7.0880,0.08275863
7.0900,-0.09581209
7.0920,0.07199307
7.0940,0.15863052
7.0960,0.19494002
7.0980,0.14222473
7.1000,0.14178576
7.1020,-0.11359019
7.1040,-0.16036473
7.1060,0.02844766
7.1080,-0.33381981
7.1100,-0.41742167
7.1120,0.10209237
7.1140,0.64985359
7.1160,0.51257521
7.1180,0.20201841
7.1200,-0.29062319
7.1220,-0.08870544
7.1240,0.26908159
7.1260,0.30115324
7.1280,0.34902886
7.1300,0.36817902
7.1320,0.01516563
7.1340,-0.18638729
7.1360,-0.12431256
7.1380,-0.15616518
7.1400,-0.15791115
7.1420,-0.15521450
7.1440,-0.17733184
7.1460,0.03787429
7.1480,0.08094873
7.1500,0.14662664
7.1520,-0.10509283
7.1540,-0.25884783
7.1560,0.07829387
7.1580,0.12774950
7.1600,0.13967957
7.1620,-0.64694619
7.1640,-0.47593269
7.1660,-0.42655054
7.1680,0.09323648
7.1700,0.10329837
7.1720,0.09739196
7.1740,0.01974597
7.1760,-0.14247416
7.1780,-0.00387442
7.1800,-0.11892111
7.1820,0.06116707
7.1840,-0.11993651
7.1860,-0.32420844
7.1880,0.07737412
7.1900,0.07642556
7.1920,0.07409719
7.1940,0.02461481
7.1960,0.33322963
7.1980,0.22933365
7.2000,0.07278834
7.2020,0.23175699
7.2040,0.06980489
7.2060,0.00913122
7.2080,-0.08331778
7.2100,-0.23042221
7.2120,0.26590222
7.2140,0.18230040
7.2160,-0.00060031
7.2180,-0.16563089
7.2200,-0.04696731
7.2220,-0.10196313
7.2240,-0.13814561
7.2260,-0.07909317
7.2280,-0.07535421
7.2300,-0.14496803
7.2320,-0.10098881
7.2340,-0.05150258
7.2360,0.03019142
7.2380,-0.07363889
7.2400,-0.02962773
7.2420,-0.08587692
7.2440,0.00222142
7.2460,-0.27141228
7.2480,0.25308543
7.2500,-0.02639831
7.2520,-0.00495558
7.2540,0.17420271
7.2560,-0.07349894
7.2580,0.09703650
7.2600,-0.24175780
7.2620,-0.03358560
7.2640,0.18393745
7.2660,0.28453571
7.2680,0.17783153
7.2700,0.25585544
7.2720,0.13405934
7.2740,-0.09601810
7.2760,-0.07933334
7.2780,-0.01863978
7.2800,0.12896670
7.2820,-0.04164111
7.2840,-0.03983641
7.2860,-0.13648750
7.2880,-0.02779251
7.2900,0.03165362
7.2920,-0.05310748
7.2940,-0.02188369
7.2960,-0.03946459
7.2980,-0.08119947
7.3000,-0.16389249
7.3020,-0.07043581
7.3040,-0.21962486
7.3060,-0.09148633
7.3080,-0.04467404
7.3100,0.07688730
7.3120,0.06145093
7.3140,-0.07216454
7.3160,0.15850587
7.3180,-0.04073346
7.3200,0.22171363
7.3220,-0.10720576
7.3240,0.35744494
7.3260,0.03701540
7.3280,0.15848309
7.3300,0.23080938
7.3320,-0.04278263
7.3340,-0.10739893
7.3360,-0.04525213
7.3380,-0.17306371
7.3400,0.08838662
7.3420,0.17989935
7.3440,-0.13693078
7.3460,0.03484657
7.3480,0.30998799
7.3500,0.18246706
7.3520,0.07255489
7.3540,-0.20113011
7.3560,-0.17888024
7.3580,-0.19291469
7.3600,-0.12988894
7.3620,0.00684067
7.3640,0.17534038
7.3660,-0.12129375
7.3680,-0.03742212
7.3700,-0.06826246
7.3720,0.02301910
7.3740,-0.02504814
7.3760,0.06566640
7.3780,0.20685002
7.3800,0.13074052
7.3820,0.07701384
7.3840,0.17939107
7.3860,-0.24484809
7.3880,-0.00601924
7.3900,0.11150593
7.3920,-0.07041621
7.3940,-0.11280600
7.3960,0.10928076
7.3980,-0.07489599
7.4000,0.07418734
7.4020,0.10473546
7.4040,-0.00293518
7.4060,0.09379730
7.4080,-0.03535528
7.4100,-0.04124847
7.4120,-0.08692176
7.4140,0.07362683
7.4160,-0.12488252
7.4180,-0.06543627
7.4200,-0.20761445
7.4220,0.08487669
7.4240,0.08935741
7.4260,0.07779478
7.4280,0.20728602
7.4300,0.33491465
7.4320,0.26603383
7.4340,0.21471420
7.4360,-0.02611393
7.4380,-0.01390911
7.4400,-0.14366822
7.4420,-0.30625561
7.4440,-0.02672448
7.4460,-0.10030498
7.4480,-0.22984840
7.4500,-0.28652209
7.4520,-0.13437295
7.4540,-0.26916173
7.4560,-0.22029516
7.4580,-0.44182166
7.4600,-0.38122475
7.4620,-0.08751952
7.4640,0.04730413
7.4660,-0.07607839
7.4680,0.29269731
7.4700,0.15731122
7.4720,0.11096178
7.4740,0.12302684
7.4760,0.05743109
7.4780,0.18083920
7.4800,0.14264980
7.4820,0.01669031
7.4840,-0.08854467
7.4860,-0.30698109
7.4880,-0.17180111
7.4900,-0.40395260
7.4920,-0.29961047
7.4940,-0.24472035
7.4960,-0.00528157
7.4980,-0.02807234
7.5000,0.04132957
7.5020,0.26078770
7.5040,0.20708482
7.5060,0.36558256
7.5080,0.18125337
7.5100,0.22279371
7.5120,0.15491286
7.5140,-0.10479868
7.5160,0.26567695
7.5180,-0.11336547
7.5200,-0.08939570
7.5220,-0.22514591
7.5240,-0.14979805
7.5260,-0.12363504
7.5280,-0.15661788
7.5300,-0.36753401
7.5320,-0.03927617
7.5340,-0.04715094
7.5360,-0.21022683
7.5380,-0.20639710
7.5400,0.15219112
7.5420,0.13636149
7.5440,-0.06374010
7.5460,0.03595592
7.5480,0.02323646
7.5500,-0.15417519
7.5520,-0.28656459
7.5540,-0.10909601
7.5560,0.07485735
7.5580,-0.01926921
7.5600,0.03506932
7.5620,0.04804424
7.5640,0.18017617
7.5660,0.24136585
7.5680,0.03337892
7.5700,0.10832593
7.5720,0.13762121
7.5740,0.14361182
7.5760,0.10062645
7.5780,-0.12485196
7.5800,0.12431433
7.5820,0.07972514
7.5840,0.12677115
7.5860,0.09119026
7.5880,0.09922950
7.5900,-0.00186679
7.5920,0.16549516
7.5940,0.00330330
7.5960,0.12530658
7.5980,-0.07406700
7.6000,-0.07492682
7.6020,-0.00413678
7.6040,-0.04325708
7.6060,-0.04270907
7.6080,-0.04826407
7.6100,0.10789403
7.6120,0.13115665
7.6140,-0.16877899
7.6160,0.01614444
7.6180,0.10322680
7.6200,0.01796291
7.6220,0.18436070
7.6240,-0.09430873
7.6260,-0.27471423
7.6280,0.01013518
7.6300,0.15752862
7.6320,-0.05021121
7.6340,0.24603330
7.6360,-0.18300411
7.6380,0.01061142
7.6400,0.22746329
7.6420,-0.00275152
7.6440,0.18165697
7.6460,0.18377943
7.6480,0.16088678
7.6500,0.06702994
7.6520,-0.04750710
7.6540,-0.01997234
7.6560,0.02563423
7.6580,0.06159326
7.6600,0.05632355
7.6620,0.17513327
7.6640,-0.02951042
7.6660,0.06529130
7.6680,-0.12280540
7.6700,-0.03233964
7.6720,0.06089566
7.6740,-0.21326403
7.6760,0.15392338
7.6780,-0.37103653
7.6800,0.09887166
7.6820,-0.06319478
7.6840,-0.03987445
7.6860,-0.11470708
7.6880,0.15451947
7.6900,0.09407862
7.6920,-0.03620810
7.6940,0.07342114
7.6960,0.32702413
7.6980,0.10729375
7.7000,0.40549523
7.7020,0.14917314
7.7040,0.14161679
7.7060,0.04450290
7.7080,-0.02849701
7.7100,-0.06921419
7.7120,0.33367771
7.7140,-0.10379521
7.7160,0.14505959
7.7180,-0.08187701
7.7200,-0.02726408
7.7220,0.00702958
7.7240,0.00079399
7.7260,-0.02004477
7.7280,0.16253334
7.7300,0.18359582
7.7320,-0.16972454
7.7340,-0.22313617
7.7360,-0.33392170
7.7380,-0.17291982
7.7400,-0.11484642
7.7420,-0.03698762
7.7440,-0.02951503
7.7460,-0.11212478
7.7480,0.06471723
7.7500,-0.21251749
7.7520,0.05862028
7.7540,0.02152069
7.7560,0.24212515
7.7580,0.13247098
7.7600,0.12914369
7.7620,0.07828791
7.7640,-0.16599597
7.7660,-0.54498696
7.7680,0.03895721
7.7700,-0.04210315
7.7720,-0.11051193
7.7740,-0.16272484
7.7760,0.25897929
7.7780,-0.17205155
7.7800,-0.15109354
7.7820,-0.26805615
7.7840,-0.18712094
7.7860,0.04642626
7.7880,0.02700746
7.7900,-0.16686848
7.7920,-0.18601304
7.7940,-0.03384964
7.7960,-0.13069667
7.7980,-0.39182979
7.8000,0.05772641
7.8020,0.02260823
7.8040,-0.00738816
7.8060,0.14359738
7.8080,0.24945049
7.8100,0.10724033
7.8120,0.23930711
7.8140,0.16234849
7.8160,0.15183955
7.8180,0.27581069
7.8200,-0.01746568
7.8220,-0.04033191
7.8240,-0.22831054
7.8260,-0.10137614
7.8280,-0.01339488
7.8300,0.02750247
7.8320,0.04216576
7.8340,0.21073107
7.8360,0.34480095
7.8380,-0.04233054
7.8400,-0.05515771
7.8420,0.03754841
7.8440,-0.11147673
7.8460,-0.19206996
7.8480,-0.22500780
7.8500,-0.01343405
7.8520,0.03440386
7.8540,0.01076295
7.8560,-0.35350639
7.8580,-0.12620522
7.8600,0.09112768
7.8620,-0.02398108
7.8640,-0.19516018
7.8660,-0.06917467
7.8680,0.07188218
7.8700,0.16072644
7.8720,0.09968582
7.8740,-0.04025289
7.8760,0.00557153
7.8780,-0.05020294
7.8800,0.11011100
7.8820,-0.10447268
7.8840,-0.05805761
7.8860,0.08534545
7.8880,0.11199937
7.8900,0.15946659
7.8920,0.20078817
7.8940,-0.00985220
7.8960,-0.16138913
7.8980,-0.14082170
7.9000,-0.01354504
7.9020,0.01110330
7.9040,0.07554282
7.9060,-0.02271017
7.9080,-0.01625747
7.9100,0.06139657
7.9120,0.00274282
7.9140,-0.08097247
7.9160,0.09804763
7.9180,0.06226663
7.9200,-0.17563045
7.9220,-0.03018120
7.9240,0.15839681
7.9260,-0.14719644
7.9280,0.03598642
7.9300,-0.04726076
7.9320,-0.01050412
7.9340,0.02663464
7.9360,0.04753669
7.9380,0.02081444
7.9400,0.02830344
7.9420,0.13781799
7.9440,0.00550377
7.9460,0.08115815
7.9480,-0.07637496
7.9500,0.21095894
7.9520,-0.01635571
7.9540,0.09242394
7.9560,-0.00633283
7.9580,0.06112117
7.9600,0.07673065
7.9620,0.19037727
7.9640,0.10116683
7.9660,0.12635216
7.9680,-0.06323005
7.9700,0.46251598
7.9720,0.08236413
7.9740,-0.00191490
7.9760,0.02375183
7.9780,0.08027121
7.9800,-0.26805592
7.9820,-0.05447781
7.9840,-0.01826270
7.9860,0.19638345
7.9880,-0.32447067
7.9900,0.16872863
7.9920,0.34695837
7.9940,0.25326180
7.9960,-0.01990870
7.9980,-0.11684905
8.0000,-0.09390323
8.0020,0.00435833
8.0040,0.14401785
8.0060,0.01329646
8.0080,-0.14614920
8.0100,-0.09012236
8.0120,0.15932906
8.0140,0.00852443
8.0160,-0.05468924
8.0180,-0.02052750
8.0200,0.16959713
8.0220,-0.15485470
8.0240,-0.25544572
8.0260,-0.14212430
8.0280,-0.02710297
8.0300,-0.13117459
8.0320,0.12784047
8.0340,-0.29163405
8.0360,0.02399275
8.0380,-0.11635694
8.0400,-0.00261462
8.0420,-0.00906924
8.0440,-0.19235963
8.0460,-0.13758546
8.0480,0.09027230
8.0500,-0.07101183
8.0520,0.19842246
8.0540,0.39684808
8.0560,0.15173844
8.0580,0.43178803
8.0600,0.53954786
8.0620,0.41858283
8.0640,0.56460667
8.0660,-0.05324645
8.0680,-0.02395699
8.0700,-0.18306373
8.0720,-0.13630418
8.0740,-0.11175556
8.0760,-0.35754979
8.0780,-0.30404380
8.0800,-0.24060991
8.0820,-0.28480703
8.0840,-0.17404188
8.0860,0.60969412
8.0880,0.15688930
8.0900,0.66891932
8.0920,0.34439668
8.0940,0.28980523
8.0960,-0.01849935
8.0980,-0.18591411
8.1000,-0.11410125
8.1020,-0.35314295
8.1040,-0.15511687
8.1060,-0.05231905
8.1080,0.00358918
8.1100,-0.54645252
8.1120,-0.72896457
8.1140,-0.42007431
8.1160,-0.42954084
8.1180,-0.42166516
8.1200,0.08027813
8.1220,0.06126260
8.1240,0.20831200
8.1260,0.04824192
8.1280,0.34866911
8.1300,0.12662441
8.1320,0.10197876
8.1340,0.40127072
8.1360,0.30691627
8.1380,0.13542315
8.1400,0.14435586
8.1420,0.39820728
8.1440,0.19505559
8.1460,0.01652053
8.1480,-0.34385329
8.1500,-0.06586590
8.1520,0.02775997
8.1540,0.01857310
8.1560,-0.36189070
8.1580,-0.20031036
8.1600,-0.38263485
8.1620,0.17932893
8.1640,0.01969571
8.1660,-0.07114420
8.1680,-0.25042167
8.1700,0.26061672
8.1720,0.19907746
8.1740,-0.11467503
8.1760,-0.19327398
8.1780,-0.04066399
8.1800,-0.36172482
8.1820,-0.04066502
8.1840,-0.29668796
8.1860,-0.00967785
8.1880,-0.34832302
8.1900,-0.22236224
