time(s),Lead_I
0.0000,-0.33164436
0.0020,-0.79658753
0.0040,-0.77778858
0.0060,-0.64891636
0.0080,-0.65904278
0.0100,-0.24446464
0.0120,-0.43399447
0.0140,-0.05098015
0.0160,-0.42451864
0.0180,-0.46491081
0.0200,-0.37141275
0.0220,-0.17681769
0.0240,0.45446154
0.0260,-0.06081390
0.0280,0.43072584
0.0300,0.36500740
0.0320,0.21091303
0.0340,-0.87842733
0.0360,-0.70191699
0.0380,-0.64311016
0.0400,-0.18879616
0.0420,-0.27897489
0.0440,-0.18032093
0.0460,-0.07103929
0.0480,-0.26683146
0.0500,0.03979152
0.0520,0.15134315
0.0540,0.14471574
0.0560,1.00000000
0.0580,-0.10393178
0.0600,-0.10116956
0.0620,0.26761439
0.0640,-0.08380785
0.0660,-0.21219504
0.0680,0.04201828
0.0700,0.12267532
0.0720,0.08338588
0.0740,0.10852740
0.0760,0.24808405
0.0780,0.38605148
0.0800,-0.04574889
0.0820,-0.36454028
0.0840,-0.33509690
0.0860,0.00887977
0.0880,-0.53977454
0.0900,-0.36996713
0.0920,-0.00359133
0.0940,-0.09728432
0.0960,0.85368347
0.0980,0.39358225
0.1000,0.08475193
0.1020,0.25762409
0.1040,0.10995504
0.1060,0.83289421
0.1080,1.00000000
0.1100,0.74194759
0.1120,0.61229068
0.1140,-0.58594358
0.1160,-0.20083083
0.1180,-0.18918875
0.1200,-0.09295054
0.1220,-0.00018633
0.1240,0.26760158
0.1260,0.07043066
0.1280,-0.01322101
0.1300,0.12168113
0.1320,0.35373867
0.1340,0.17416576
0.1360,0.22750488
0.1380,0.10548942
0.1400,0.07689814
0.1420,0.03210998
0.1440,0.33052081
0.1460,0.33965322
0.1480,0.42924455
0.1500,0.38628545
0.1520,0.25246948
0.1540,0.10410392
0.1560,0.07735620
0.1580,-0.09971855
0.1600,0.11586118
0.1620,-0.10629655
0.1640,0.33064729
0.1660,-0.00404453
0.1680,-0.13503650
0.1700,0.09835794
0.1720,0.20988131
0.1740,0.14833234
0.1760,0.24263005
0.1780,0.13880049
0.1800,-0.01833598
0.1820,-0.07252226
0.1840,-0.07715774
0.1860,-0.45997831
0.1880,-0.17981789
0.1900,0.29770526
0.1920,0.71747649
0.1940,0.23538364
0.1960,0.13175952
0.1980,-0.55922842
0.2000,-0.16189845
0.2020,-0.01911750
0.2040,0.03827868
0.2060,-0.02116773
0.2080,-0.17390023
0.2100,0.16829878
0.2120,0.01784131
0.2140,0.32976848
0.2160,0.65523303
0.2180,0.48876730
0.2200,0.28907800
0.2220,0.26010370
0.2240,0.09636859
0.2260,0.81744212
0.2280,0.48779187
0.2300,0.13120234
0.2320,-0.17152706
0.2340,0.08337292
0.2360,0.02753461
0.2380,0.49766594
0.2400,0.46641177
0.2420,0.80087143
0.2440,-0.08449935
0.2460,-0.28932104
0.2480,0.65515316
0.2500,-0.00916156
0.2520,-0.01584772
0.2540,-0.30466706
0.2560,-0.14091140
0.2580,0.08188957
0.2600,-0.55629325
0.2620,0.12468097
0.2640,0.02682161
0.2660,0.94688135
0.2680,0.73589253
0.2700,0.27626443
0.2720,-0.37100834
0.2740,-0.31823865
0.2760,-0.95966953
0.2780,-0.23480637
0.2800,-0.37759292
0.2820,-0.79985040
0.2840,-0.99685484
0.2860,-0.59813231
0.2880,-0.33331370
0.2900,0.00174512
0.2920,-0.13082820
0.2940,0.02533635
0.2960,-0.11216320
0.2980,-0.17903443
0.3000,0.06137370
0.3020,-0.24895865
0.3040,-0.13043891
0.3060,-0.68358874
0.3080,0.14257820
0.3100,-0.11996853
0.3120,-0.24395506
0.3140,-0.01214159
0.3160,0.23667029
0.3180,0.20697580
0.3200,0.45496106
0.3220,0.34881014
0.3240,0.33437982
0.3260,0.62768191
0.3280,0.00899641
0.3300,-0.48021027
0.3320,0.11526287
0.3340,-0.29740822
0.3360,-0.03009271
0.3380,-0.04041889
0.3400,0.78129935
0.3420,0.29594594
0.3440,-0.16388464
0.3460,-0.49306202
0.3480,-0.63170862
0.3500,-0.52289677
0.3520,-0.56453890
0.3540,-0.06416153
0.3560,-0.05701944
0.3580,0.48778600
0.3600,-0.06475315
0.3620,-0.18418719
0.3640,0.47652379
0.3660,0.39991838
0.3680,0.25793836
0.3700,-0.03523404
0.3720,-0.16709732
0.3740,-0.27187043
0.3760,0.20137818
0.3780,0.11014075
0.3800,0.06790521
0.3820,0.03439069
0.3840,-0.39939150
0.3860,-0.39478216
0.3880,-0.44040492
0.3900,-0.02184995
0.3920,-0.05540445
0.3940,-0.10972489
0.3960,-0.27846020
0.3980,0.18510349
0.4000,-0.41245952
0.4020,0.04603689
0.4040,0.01990032
0.4060,-0.00437225
0.4080,0.42938307
0.4100,0.07698933
0.4120,0.10658731
0.4140,-0.30485424
0.4160,0.07811615
0.4180,-0.08760520
0.4200,-0.07368497
0.4220,0.00486391
0.4240,-0.26511523
0.4260,-0.05968842
0.4280,-0.21134886
0.4300,0.08298598
0.4320,-0.09670250
0.4340,0.06581527
0.4360,0.24756980
0.4380,0.06305011
0.4400,-0.18699785
0.4420,-0.32987085
0.4440,-0.24249221
0.4460,-0.26949251
0.4480,-0.11907478
0.4500,0.27257141
0.4520,0.35676789
0.4540,0.70606983
0.4560,0.91247976
0.4580,0.31495956
0.4600,0.45580247
0.4620,0.20811927
0.4640,-0.62476885
0.4660,0.07452476
0.4680,0.07096300
0.4700,-0.19551966
0.4720,-0.42786705
0.4740,-0.33193573
0.4760,-0.75516510
0.4780,-0.53473777
0.4800,0.16770008
0.4820,0.33327806
0.4840,0.41693017
0.4860,0.47472060
0.4880,0.41755900
0.4900,0.73703444
0.4920,0.88750577
0.4940,0.57043880
0.4960,0.26859924
0.4980,-0.13469353
0.5000,0.01759312
0.5020,0.06309968
0.5040,-0.01144403
0.5060,-0.18318255
0.5080,-0.22283790
0.5100,-0.29707623
0.5120,-0.61710066
0.5140,-0.26118743
0.5160,-0.10142822
0.5180,-0.07855565
0.5200,-0.20310742
0.5220,0.11806642
0.5240,0.21786486
0.5260,-0.13258623
0.5280,-0.17080976
0.5300,-0.08378808
0.5320,-0.04222142
0.5340,-0.06788089
0.5360,-0.25348705
0.5380,-0.21369505
0.5400,-0.11353143
0.5420,-0.06615522
0.5440,-0.05330838
0.5460,0.15792595
0.5480,-0.08126531
0.5500,-0.08006900
0.5520,-0.05187402
0.5540,-0.20019448
0.5560,-0.13688909
0.5580,-0.23306528
0.5600,-0.14426911
0.5620,0.18340516
0.5640,0.20883335
0.5660,0.21011254
0.5680,-0.00632813
0.5700,-0.05423298
0.5720,-0.14327979
0.5740,-0.12226115
0.5760,0.00146554
0.5780,0.10446581
0.5800,0.10666061
0.5820,0.14877613
0.5840,0.06438737
0.5860,0.42569456
0.5880,0.22066014
0.5900,0.19222252
0.5920,0.14962403
0.5940,-0.21610440
0.5960,-0.08521374
0.5980,0.04291063
0.6000,-0.07089809
0.6020,0.03305797
0.6040,0.17470126
0.6060,-0.20794106
0.6080,-0.01059987
0.6100,0.09928887
0.6120,-0.24536665
0.6140,0.16220212
0.6160,-0.18705460
0.6180,0.22626536
0.6200,0.09210812
0.6220,-0.04495766
0.6240,0.03006108
0.6260,-0.21754457
0.6280,-0.14949265
0.6300,-0.03103036
0.6320,0.06980891
0.6340,-0.07526665
0.6360,0.24223930
0.6380,0.03887554
0.6400,-0.05215414
0.6420,0.17504930
0.6440,-0.32744741
0.6460,0.19625184
0.6480,-0.09897539
0.6500,0.05650121
0.6520,0.19818842
0.6540,-0.01109217
0.6560,0.07186698
0.6580,-0.05147449
0.6600,-0.00585634
0.6620,0.01502200
0.6640,0.01214686
0.6660,-0.00746027
0.6680,-0.12806928
0.6700,0.03828009
0.6720,-0.02159302
0.6740,0.02979749
0.6760,-0.06245686
0.6780,0.02867411
0.6800,0.09023046
0.6820,-0.14141214
0.6840,-0.03290847
0.6860,-0.18005025
0.6880,-0.07497165
0.6900,-0.11110625
0.6920,-0.10493567
0.6940,-0.21616170
0.6960,0.08231786
0.6980,-0.14440279
0.7000,-0.06659877
0.7020,-0.17805889
0.7040,-0.06951659
0.7060,-0.07330059
0.7080,-0.17011642
0.7100,-0.12607253
0.7120,-0.09336217
0.7140,-0.08313764
0.7160,-0.17697072
0.7180,-0.10264187
0.7200,0.07984345
0.7220,-0.18655513
0.7240,-0.05663008
0.7260,0.04785183
0.7280,0.19300942
0.7300,0.02664351
0.7320,-0.02381073
0.7340,-0.01929539
0.7360,0.00590367
0.7380,0.01593302
0.7400,-0.06439145
0.7420,-0.00694594
0.7440,0.02461483
0.7460,0.18804239
0.7480,0.17743082
0.7500,0.17683592
0.7520,-0.00145237
0.7540,0.25816229
0.7560,0.07313324
0.7580,0.06197895
0.7600,0.06334397
0.7620,0.17963742
0.7640,0.01967116
0.7660,0.12455196
0.7680,0.17023571
0.7700,0.14485341
0.7720,0.21550655
0.7740,-0.06363875
0.7760,0.15093859
0.7780,-0.11855607
0.7800,0.08858150
0.7820,0.02032678
0.7840,0.12558150
0.7860,0.13349164
0.7880,0.27629668
0.7900,0.05229358
0.7920,0.20372459
0.7940,-0.19431402
0.7960,-0.25133839
0.7980,-0.17093597
0.8000,-0.08116301
0.8020,0.33364737
0.8040,0.31836626
0.8060,0.28293502
0.8080,0.02315671
0.8100,0.00979846
0.8120,-0.15964827
0.8140,-0.11884409
0.8160,-0.15096074
0.8180,0.04527478
0.8200,-0.08142775
0.8220,0.14128673
0.8240,-0.25331444
0.8260,0.15118136
0.8280,-0.09651235
0.8300,-0.13648583
0.8320,-0.15246204
0.8340,0.14702435
0.8360,0.01765882
0.8380,0.06925592
0.8400,-0.17157674
0.8420,-0.33792487
0.8440,-0.09596977
0.8460,-0.08266112
0.8480,-0.14264822
0.8500,-0.08208259
0.8520,-0.12149294
0.8540,0.01618168
0.8560,-0.15249972
0.8580,0.09486348
0.8600,-0.09891634
0.8620,-0.02892012
0.8640,-0.10540105
0.8660,-0.46261883
0.8680,-0.51313996
0.8700,-0.21784681
0.8720,-0.26935482
0.8740,-0.16933446
0.8760,0.12374723
0.8780,0.36688834
0.8800,-0.02887177
0.8820,-0.02618594
0.8840,0.10446122
0.8860,-0.09677064
0.8880,-0.24783051
0.8900,-0.27467963
0.8920,-0.08924889
0.8940,-0.17079331
0.8960,0.15667416
0.8980,-0.20496181
0.9000,-0.14002265
0.9020,0.17823787
0.9040,0.19194652
0.9060,0.06627635
0.9080,-0.17718607
0.9100,-0.05236979
0.9120,-0.28822020
0.9140,-0.10016893
0.9160,-0.18762612
0.9180,-0.36574912
0.9200,-0.42832682
0.9220,-0.27051443
0.9240,0.17872180
0.9260,0.13303187
0.9280,0.31001678
0.9300,-0.03533266
0.9320,-0.29550615
0.9340,-0.38493416
0.9360,-0.44811821
0.9380,-0.19346495
0.9400,-0.27890223
0.9420,-0.33111772
0.9440,-0.16710511
0.9460,-0.18718696
0.9480,-0.12957589
0.9500,0.02927879
0.9520,0.30506861
0.9540,0.44206563
0.9560,0.17130968
0.9580,0.21626393
0.9600,0.14508456
0.9620,0.08466163
0.9640,0.11660252
0.9660,0.07815479
0.9680,-0.34741884
0.9700,-0.16166480
0.9720,-0.08173925
0.9740,0.49692285
0.9760,0.51729769
0.9780,0.11950664
0.9800,0.18821976
0.9820,0.08043436
0.9840,0.16704609
0.9860,0.01630078
0.9880,-0.28456849
0.9900,-0.04939121
0.9920,0.01654798
0.9940,0.07504744
0.9960,0.12934986
0.9980,0.13198070
1.0000,0.13639466
1.0020,-0.05643535
1.0040,0.00990603
1.0060,0.14110941
1.0080,0.11952837
1.0100,-0.05815284
1.0120,-0.06840240
1.0140,0.03810158
1.0160,-0.15853915
1.0180,-0.27934104
1.0200,0.12045909
1.0220,-0.15211783
1.0240,-0.05986198
1.0260,0.30125681
1.0280,0.09220323
1.0300,-0.07418062
1.0320,-0.35768506
1.0340,-0.05517982
1.0360,-0.17974044
1.0380,0.01531721
1.0400,-0.24684055
1.0420,-0.07722203
1.0440,-0.02782455
1.0460,-0.21109550
1.0480,-0.27281594
1.0500,-0.44645572
1.0520,-0.15509325
1.0540,-0.14860016
1.0560,-0.36433700
1.0580,0.21367189
1.0600,0.58591872
1.0620,0.08671724
1.0640,-0.19322510
1.0660,-0.34044057
1.0680,-0.06219591
1.0700,-0.28345355
1.0720,0.31225035
1.0740,0.88824058
1.0760,0.10035382
1.0780,0.38752070
1.0800,-0.11690637
1.0820,-0.48073810
1.0840,-0.15437305
1.0860,0.11904655
1.0880,0.22809452
1.0900,-0.28014407
1.0920,-0.52768666
1.0940,0.07149740
1.0960,-0.45180696
1.0980,0.24426553
1.1000,0.05211286
1.1020,-0.07303328
1.1040,-0.04885250
1.1060,0.24412329
1.1080,-0.01069221
1.1100,0.24296278
1.1120,-0.04745171
1.1140,-0.19362296
1.1160,-0.07322056
1.1180,-0.04294540
1.1200,0.56269544
1.1220,-0.49928588
1.1240,-0.09503400
1.1260,0.18365355
1.1280,-0.03105932
1.1300,-0.13494819
1.1320,-0.23226923
1.1340,-0.22702909
1.1360,-0.20895545
1.1380,-0.24860705
1.1400,-0.19552030
1.1420,0.07683117
1.1440,0.10396428
1.1460,0.55103421
1.1480,0.58877492
1.1500,-0.34915090
1.1520,0.02331057
1.1540,-0.24038568
1.1560,-0.02300188
1.1580,-0.19535454
1.1600,-0.02114153
1.1620,-0.14924954
1.1640,0.04628363
1.1660,0.28777254
1.1680,0.31402507
1.1700,0.27788416
1.1720,-0.03617191
1.1740,-0.03899417
1.1760,-0.06172520
1.1780,-0.33566329
1.1800,-0.28063262
1.1820,-0.43544474
1.1840,-0.01229575
1.1860,-0.09225328
1.1880,0.12801124
1.1900,0.13030314
1.1920,0.38544226
1.1940,0.23244810
1.1960,0.54477614
1.1980,-0.02228161
1.2000,0.08431689
1.2020,-0.03385391
1.2040,0.07248249
1.2060,0.01771687
1.2080,0.36464170
1.2100,0.32003653
1.2120,0.24849056
1.2140,0.32985970
1.2160,0.45150608
1.2180,0.08369108
1.2200,0.09058873
1.2220,-0.01515118
1.2240,0.04083111
1.2260,0.07835425
1.2280,0.25517914
1.2300,0.15819855
1.2320,-0.09237878
1.2340,-0.06797794
1.2360,-0.12118398
1.2380,-0.17342134
1.2400,0.17946395
1.2420,0.39534089
1.2440,0.49877846
1.2460,0.26109236
1.2480,0.35994923
1.2500,-0.35147807
1.2520,-0.24455440
1.2540,-0.48932865
1.2560,0.29557326
1.2580,0.08259713
1.2600,-0.05594165
1.2620,-0.16496207
1.2640,0.03855231
1.2660,0.07662991
1.2680,-0.00571056
1.2700,-0.21224587
1.2720,-0.22601226
1.2740,-0.06868520
1.2760,0.20311970
1.2780,0.28327546
1.2800,0.21698822
1.2820,-0.02058142
1.2840,-0.19721305
1.2860,-0.41178545
1.2880,-0.14788553
1.2900,-0.09314930
1.2920,-0.07053954
1.2940,0.00183903
1.2960,0.27984321
1.2980,-0.44454876
1.3000,-0.27475357
1.3020,0.06784128
1.3040,0.16383097
1.3060,-0.06284989
1.3080,-0.34211943
1.3100,-0.22907352
1.3120,0.24829921
1.3140,-0.04898155
1.3160,-0.11844049
1.3180,0.38739830
1.3200,0.16570227
1.3220,0.45012510
1.3240,0.23195094
1.3260,0.30790713
1.3280,0.26702335
1.3300,-0.32138991
1.3320,-0.19651715
1.3340,-0.06947521
1.3360,0.72230679
1.3380,0.13634698
1.3400,0.34004599
1.3420,0.61172777
1.3440,0.38445699
1.3460,-0.08825962
1.3480,-0.40875864
1.3500,-0.11827557
1.3520,-0.05864295
1.3540,0.10140107
1.3560,0.01121547
1.3580,-0.24706285
1.3600,0.18150386
1.3620,0.07769666
1.3640,0.00706164
1.3660,-0.00286189
1.3680,0.01293146
1.3700,0.14321671
1.3720,0.26882136
1.3740,0.14451090
1.3760,0.14820221
1.3780,-0.01362853
1.3800,-0.10296743
1.3820,-0.02861473
1.3840,-0.13638729
1.3860,-0.19781211
1.3880,-0.02889884
1.3900,-0.22384268
1.3920,-0.01171988
1.3940,-0.19367044
1.3960,0.00432223
1.3980,-0.02471215
1.4000,0.00029795
1.4020,0.36394516
1.4040,0.13663386
1.4060,0.02281641
1.4080,0.10347670
1.4100,0.16242231
1.4120,0.41352171
1.4140,0.48843417
1.4160,0.38916764
1.4180,-0.24295542
1.4200,-0.20518960
1.4220,-0.47265619
1.4240,-0.39915943
1.4260,-0.45929432
1.4280,-0.26422486
1.4300,-0.29462078
1.4320,-0.12997620
1.4340,0.05045547
1.4360,0.21582708
1.4380,0.24058254
1.4400,0.17979145
1.4420,0.26333886
1.4440,0.16886361
1.4460,0.18684773
1.4480,0.37612200
1.4500,0.38935170
1.4520,0.52774704
1.4540,0.17154391
1.4560,0.30865160
1.4580,0.17105734
1.4600,0.09413945
1.4620,-0.01805813
1.4640,-0.13637294
1.4660,-0.36706993
1.4680,-0.26890969
1.4700,-0.28649729
1.4720,-0.10589283
1.4740,-0.11313950
1.4760,0.01352421
1.4780,0.38104117
1.4800,0.05185704
1.4820,-0.04437903
1.4840,0.22217286
1.4860,-0.05729845
1.4880,-0.03623510
1.4900,0.01651042
1.4920,-0.02477588
1.4940,-0.30370802
1.4960,-0.10435376
1.4980,-0.36237696
1.5000,0.25673202
1.5020,0.16777243
1.5040,0.70579612
1.5060,-0.03825412
1.5080,0.42623466
1.5100,0.52637333
1.5120,0.54840046
1.5140,0.16805013
1.5160,0.12277250
1.5180,0.21646421
1.5200,-0.33488256
1.5220,-0.04896281
1.5240,-0.04176867
1.5260,-0.04851332
1.5280,-0.31089517
1.5300,-0.09044237
1.5320,-0.32631773
1.5340,-0.00005661
1.5360,0.10387147
1.5380,0.64381641
1.5400,0.40791520
1.5420,0.37674025
1.5440,0.29137465
1.5460,0.11078564
1.5480,0.35235620
1.5500,0.66473740
1.5520,0.17105955
1.5540,0.09419545
1.5560,-0.35105777
1.5580,-0.24865463
1.5600,-0.43195581
1.5620,-0.38643661
1.5640,-0.00176998
1.5660,-0.12839715
1.5680,-0.42231899
1.5700,-0.06672195
1.5720,-0.18500410
1.5740,-0.15167874
1.5760,0.39420688
1.5780,0.22566059
1.5800,-0.15679039
1.5820,-0.04171797
1.5840,0.53500456
1.5860,0.26575446
1.5880,-0.22342709
1.5900,0.07445260
1.5920,-0.22903486
1.5940,-0.27264282
1.5960,0.21226813
1.5980,0.03690829
1.6000,-0.20061767
1.6020,-0.01061297
1.6040,0.03933146
1.6060,-0.09112328
1.6080,0.50803834
1.6100,0.15019263
1.6120,-0.17234083
1.6140,-0.56719792
1.6160,-0.52562243
1.6180,-0.30454424
1.6200,0.29413372
1.6220,0.16088979
1.6240,0.10000975
1.6260,-0.03863406
1.6280,-0.08278307
1.6300,-0.16762628
1.6320,-0.18352337
1.6340,-0.18971393
1.6360,-0.03387626
1.6380,-0.13987374
1.6400,-0.08400019
1.6420,0.11354597
1.6440,0.50254494
1.6460,0.25097674
1.6480,0.27183315
1.6500,0.06445527
1.6520,-0.05782508
1.6540,0.02985360
1.6560,-0.25539598
1.6580,-0.12681970
1.6600,0.06062635
1.6620,0.49064049
1.6640,0.41104230
1.6660,0.29933244
1.6680,-0.00250022
1.6700,-0.08793971
1.6720,-0.27751461
1.6740,-0.14549258
1.6760,0.05238143
1.6780,0.03713838
1.6800,0.43798107
1.6820,-0.02265987
1.6840,0.21538654
1.6860,0.06719590
1.6880,0.31744528
1.6900,0.14727721
1.6920,0.02611302
1.6940,0.11179215
1.6960,0.09685458
1.6980,0.05770990
1.7000,0.03450073
1.7020,-0.00544935
1.7040,0.00274173
1.7060,0.30554235
1.7080,0.19213966
1.7100,0.25332278
1.7120,0.07392220
1.7140,-0.27493966
1.7160,-0.25365922
1.7180,-0.11848155
1.7200,0.00003113
1.7220,0.19961396
1.7240,0.02900766
1.7260,0.07201888
1.7280,-0.05741617
1.7300,-0.28823897
1.7320,-0.03944211
1.7340,-0.08254712
1.7360,-0.18752551
1.7380,-0.02131651
1.7400,-0.06652468
1.7420,-0.10786180
1.7440,-0.55495679
1.7460,-0.56554079
1.7480,-0.20082094
1.7500,-0.13443720
1.7520,-0.25571796
1.7540,-0.23694488
1.7560,-0.65372020
1.7580,-0.11628457
1.7600,0.00102837
1.7620,0.01366197
1.7640,-0.03727891
1.7660,0.01932813
1.7680,0.04374703
1.7700,-0.20263273
1.7720,-0.13623405
1.7740,0.13531463
1.7760,0.00847069
1.7780,0.15556040
1.7800,0.03719377
1.7820,-0.16865137
1.7840,0.28232029
1.7860,-0.08874895
1.7880,-0.06042874
1.7900,-0.08853009
1.7920,0.06108315
1.7940,0.03327109
1.7960,0.05699416
1.7980,0.05345767
1.8000,0.15330650
1.8020,0.14702028
1.8040,0.11192735
1.8060,-0.00475973
1.8080,-0.05367091
1.8100,0.08557394
1.8120,-0.09063518
1.8140,-0.13275492
1.8160,-0.03368320
1.8180,-0.33693165
1.8200,0.21949911
1.8220,0.14330876
1.8240,0.13827960
1.8260,0.02150006
1.8280,-0.00017980
1.8300,-0.01250777
1.8320,0.10591433
1.8340,-0.24962638
1.8360,-0.33078459
1.8380,-0.09247378
1.8400,-0.26288804
1.8420,-0.03252580
1.8440,-0.01886525
1.8460,0.22873488
1.8480,-0.03737318
1.8500,-0.18859726
1.8520,0.05570339
1.8540,0.04387271
1.8560,0.00172160
1.8580,-0.48244864
1.8600,-0.49619979
1.8620,-0.49499065
1.8640,-0.05071533
1.8660,0.05586488
1.8680,-0.19462457
1.8700,-0.17384024
1.8720,0.15135865
1.8740,-0.01901485
1.8760,0.19129734
1.8780,-0.14672840
1.8800,-0.18332753
1.8820,-0.18234840
1.8840,-0.48169944
1.8860,-0.66053694
1.8880,0.12169960
1.8900,0.12118098
1.8920,-0.25781041
1.8940,0.02365738
1.8960,0.08305047
1.8980,-0.04708268
1.9000,0.03941062
1.9020,-0.01272687
1.9040,0.09618767
1.9060,0.00459484
1.9080,0.06560255
1.9100,-0.00030578
1.9120,0.18533386
1.9140,0.37517351
1.9160,0.29816249
1.9180,0.42936030
1.9200,0.46115270
1.9220,0.32690138
1.9240,0.35549709
1.9260,0.45281449
1.9280,0.41052932
1.9300,-0.33681101
1.9320,-0.22216853
1.9340,0.53968602
1.9360,0.45511493
1.9380,0.23800905
1.9400,0.24879980
1.9420,0.07705934
1.9440,0.20148639
1.9460,0.32614806
1.9480,0.51689768
1.9500,0.32497737
1.9520,0.18870606
1.9540,-0.07352241
1.9560,0.24731325
1.9580,0.02938841
1.9600,0.16862720
1.9620,0.01380990
1.9640,-0.32102010
1.9660,0.22041129
1.9680,0.21874034
1.9700,0.13011661
1.9720,0.14393181
1.9740,-0.14108719
1.9760,0.06224853
1.9780,0.16883425
1.9800,0.19798596
1.9820,0.26349616
1.9840,0.00356560
1.9860,0.07890874
1.9880,-0.04270642
1.9900,-0.23774877
1.9920,-0.14417623
1.9940,0.27313152
1.9960,0.08835154
1.9980,0.09137349
2.0000,0.01434199
2.0020,-0.02592457
2.0040,0.02503679
2.0060,0.21233888
2.0080,0.32338494
2.0100,-0.19460191
2.0120,-0.22707440
2.0140,-0.19964384
2.0160,-0.01164817
2.0180,-0.04185053
2.0200,-0.24913882
2.0220,0.06192349
2.0240,-0.15973996
2.0260,0.44931737
2.0280,0.48082179
2.0300,0.15463316
2.0320,-0.17552552
2.0340,-0.01642187
2.0360,-0.32522839
2.0380,0.00819219
2.0400,-0.01316617
2.0420,0.05718062
2.0440,0.12383319
2.0460,-0.15794687
2.0480,0.25143501
2.0500,0.06528143
2.0520,0.41553566
2.0540,-0.09310482
2.0560,-0.19887356
2.0580,0.01279898
2.0600,-0.04031068
2.0620,0.25663090
2.0640,0.00439502
2.0660,0.11595343
2.0680,0.16285267
2.0700,-0.04315959
2.0720,-0.05677444
2.0740,0.20446204
2.0760,0.26256943
2.0780,-0.05110225
2.0800,-0.33942527
2.0820,0.14860873
2.0840,0.29914993
2.0860,-0.14585097
2.0880,0.15317544
2.0900,0.14037056
2.0920,0.19649291
2.0940,0.17513947
2.0960,-0.09157626
2.0980,0.08377068
2.1000,-0.02372675
2.1020,0.10124232
2.1040,-0.20685515
2.1060,0.22191378
2.1080,0.30996519
2.1100,0.21072212
2.1120,0.06098580
2.1140,0.04786269
2.1160,-0.10967519
2.1180,0.16151857
2.1200,0.18177608
2.1220,-0.05514770
2.1240,-0.04597050
2.1260,-0.02800418
2.1280,0.06582796
2.1300,-0.11978456
2.1320,0.19540104
2.1340,0.01111807
2.1360,0.13559076
2.1380,0.03232662
2.1400,0.12405317
2.1420,0.34884211
2.1440,-0.06321286
2.1460,0.03339253
2.1480,0.05132514
2.1500,0.01895728
2.1520,-0.19287343
2.1540,0.08800268
2.1560,0.20145263
2.1580,0.13517328
2.1600,0.38784358
2.1620,-0.03790576
2.1640,-0.00246877
2.1660,0.20182151
2.1680,-0.06569356
2.1700,0.10649927
2.1720,0.01091992
2.1740,0.09605417
2.1760,-0.15849654
2.1780,0.08214886
2.1800,0.10695411
2.1820,0.10407865
2.1840,-0.08219890
2.1860,0.02755728
2.1880,-0.02525291
2.1900,0.23428091
2.1920,0.04550888
2.1940,0.11389368
2.1960,0.26478377
2.1980,-0.04469052
2.2000,0.22608425
2.2020,-0.05747029
2.2040,0.06783538
2.2060,-0.18613729
2.2080,0.06215148
2.2100,0.08719076
2.2120,0.10359775
2.2140,0.07863326
2.2160,0.05948673
2.2180,0.10199866
2.2200,-0.03507025
2.2220,-0.00225961
2.2240,-0.04262790
2.2260,0.37170762
2.2280,0.24319714
2.2300,-0.14753769
2.2320,-0.00103365
2.2340,0.10395987
2.2360,-0.00258307
2.2380,0.38719368
2.2400,0.01980995
2.2420,-0.20651701
2.2440,-0.04681672
2.2460,0.00893165
2.2480,0.19928138
2.2500,-0.09557657
2.2520,0.10388122
2.2540,0.05885068
2.2560,0.15233418
2.2580,0.09958559
2.2600,0.17173040
2.2620,0.03558173
2.2640,-0.11219698
2.2660,0.11034352
2.2680,0.19197014
2.2700,0.13055067
2.2720,0.05901296
2.2740,0.13967682
2.2760,0.00757225
2.2780,0.02153960
2.2800,0.29391429
2.2820,-0.05897115
2.2840,-0.13979205
2.2860,0.21961273
2.2880,0.10636201
2.2900,0.06744588
2.2920,-0.02202743
2.2940,0.08684827
2.2960,-0.13591397
2.2980,-0.12739985
2.3000,-0.02059022
2.3020,0.20862201
2.3040,0.21168579
2.3060,0.27509680
2.3080,0.24747774
2.3100,0.00631876
2.3120,0.03209901
2.3140,-0.09094980
2.3160,-0.05732138
2.3180,0.04794807
2.3200,-0.06104070
2.3220,0.14248998
2.3240,0.27754149
2.3260,0.42600510
2.3280,0.36925587
2.3300,-0.23291099
2.3320,-0.17361628
2.3340,0.11443253
2.3360,0.07634742
2.3380,-0.00831269
2.3400,0.02906075
2.3420,0.08595706
2.3440,0.06022859
2.3460,0.09036810
2.3480,0.15811394
2.3500,0.02774287
2.3520,-0.06956146
2.3540,-0.02264829
2.3560,0.11139947
2.3580,0.01586518
2.3600,-0.01853288
2.3620,0.21092077
2.3640,0.05632482
2.3660,0.19752283
2.3680,0.11071283
2.3700,0.01260019
2.3720,-0.15634187
2.3740,0.05006287
2.3760,-0.05146438
2.3780,0.01041177
2.3800,0.74096739
2.3820,0.17614575
2.3840,-0.24631990
2.3860,-0.09710796
2.3880,-0.01078299
2.3900,0.20243067
2.3920,0.04139740
2.3940,-0.09664047
2.3960,0.05081972
2.3980,-0.07507631
2.4000,-0.26787731
2.4020,0.07089388
2.4040,0.28882757
2.4060,-0.03402179
2.4080,0.01586406
2.4100,0.14968586
2.4120,0.21997315
2.4140,-0.05961527
2.4160,0.06017025
2.4180,-0.01305469
2.4200,-0.08178617
2.4220,-0.13692799
2.4240,0.17124407
2.4260,0.05100727
2.4280,0.49673685
2.4300,0.09171052
2.4320,-0.03473718
2.4340,-0.16528325
2.4360,-0.23774700
2.4380,0.20429033
2.4400,0.06541475
2.4420,0.01048060
2.4440,-0.31910196
2.4460,0.00581023
2.4480,0.06697881
2.4500,0.26024345
2.4520,0.06857036
2.4540,0.08043066
2.4560,-0.10692658
2.4580,0.02820081
2.4600,0.17874588
2.4620,-0.07789632
2.4640,0.10043321
2.4660,-0.09098727
2.4680,-0.02568229
2.4700,0.34963152
2.4720,-0.05287521
2.4740,0.03275137
2.4760,-0.20363228
2.4780,-0.02990863
2.4800,0.01866136
2.4820,0.17434365
2.4840,0.02217240
2.4860,-0.21937121
2.4880,-0.10065394
2.4900,-0.14638343
2.4920,0.01304448
2.4940,-0.00973951
2.4960,0.05258325
2.4980,0.15665187
2.5000,0.07998252
2.5020,-0.13247354
2.5040,-0.12848452
2.5060,-0.16806766
2.5080,-0.11905622
2.5100,-0.09166921
2.5120,0.18951832
2.5140,0.17091535
2.5160,-0.15384914
2.5180,-0.05421260
2.5200,-0.27326584
2.5220,0.17851193
2.5240,-0.02698451
2.5260,-0.09968644
2.5280,0.36638135
2.5300,-0.08369066
2.5320,0.04276916
2.5340,-0.18114024
2.5360,-0.09532779
2.5380,0.24112147
2.5400,0.13657163
2.5420,0.09996679
2.5440,0.08178167
2.5460,-0.34282449
2.5480,-0.20265123
2.5500,-0.04982014
2.5520,0.03236241
2.5540,-0.07259360
2.5560,0.07417849
2.5580,-0.09113409
2.5600,-0.17379993
2.5620,-0.16947304
2.5640,-0.02278911
2.5660,-0.06879230
2.5680,-0.10390855
2.5700,0.04517661
2.5720,0.12847209
2.5740,0.09040622
2.5760,0.48184976
2.5780,-0.02886055
2.5800,0.10242409
2.5820,-0.02662346
2.5840,0.64104915
2.5860,-0.09270440
2.5880,-0.50249684
2.5900,0.23210044
2.5920,-0.10172667
2.5940,0.07405254
2.5960,0.15879945
2.5980,-0.21931554
2.6000,-0.06131322
2.6020,-0.01180260
2.6040,0.24083252
2.6060,-0.08156378
2.6080,0.09449536
2.6100,-0.59754688
2.6120,-0.99851352
2.6140,-0.34524038
2.6160,0.26587024
2.6180,0.31785059
2.6200,0.45888001
2.6220,0.42982128
2.6240,-0.52541077
2.6260,-0.69320315
2.6280,-0.61050797
2.6300,-0.76738232
2.6320,-0.09898948
2.6340,-0.40891945
2.6360,0.18234265
2.6380,0.13588358
2.6400,-0.18689208
2.6420,-0.18625614
2.6440,0.10725614
2.6460,0.03481895
2.6480,0.04474959
2.6500,-0.06354069
2.6520,-0.48252308
2.6540,-0.11571079
2.6560,-0.59663975
2.6580,0.19005549
2.6600,0.20747317
2.6620,0.26756710
2.6640,0.51870835
2.6660,-0.15439336
2.6680,-0.19428957
2.6700,-0.03766099
2.6720,-0.76639634
2.6740,-0.27063593
2.6760,0.00023522
2.6780,-0.12660766
2.6800,0.57451558
2.6820,0.28566390
2.6840,-0.12498475
2.6860,0.00824131
2.6880,-0.61608440
2.6900,-0.42510980
2.6920,-0.26584139
2.6940,-0.38602600
2.6960,-0.15997027
2.6980,-0.32017088
2.7000,-0.15807635
2.7020,0.24200131
2.7040,-0.65081519
2.7060,0.09249150
2.7080,-0.00820795
2.7100,-0.05663460
2.7120,0.53342915
2.7140,0.30391467
2.7160,0.59680939
2.7180,0.75644982
2.7200,0.24506003
2.7220,-0.23636989
2.7240,-0.40349278
2.7260,-0.23902988
2.7280,-0.24676256
2.7300,-0.36422095
2.7320,-0.15604396
2.7340,-0.07616250
2.7360,0.09541649
2.7380,-0.13827409
2.7400,-0.28931808
2.7420,-0.28603396
2.7440,-0.42520475
2.7460,0.27897877
2.7480,0.49055636
2.7500,0.41592529
2.7520,0.04804633
2.7540,-0.16692890
2.7560,-0.09086937
2.7580,-0.08072390
2.7600,0.11763899
2.7620,-0.21594730
2.7640,-0.19135825
2.7660,-0.41871387
2.7680,-0.16612093
2.7700,-0.18700165
2.7720,-0.17279947
2.7740,-0.17888406
2.7760,-0.25193295
2.7780,0.52560633
2.7800,0.62119162
2.7820,0.86132640
2.7840,0.63787758
2.7860,0.46330082
2.7880,-0.13937129
2.7900,-0.50432706
2.7920,-0.14808074
2.7940,-0.41562176
2.7960,-0.16190882
2.7980,-0.20132545
2.8000,0.06254498
2.8020,-0.21330167
2.8040,0.16252692
2.8060,-0.13512270
2.8080,0.04595029
2.8100,-0.35136247
2.8120,-0.35817951
2.8140,-0.66687918
2.8160,-0.48934001
2.8180,0.23081148
2.8200,0.10039251
2.8220,0.37911367
2.8240,0.62861687
2.8260,1.00000000
2.8280,1.00000000
2.8300,0.83710843
2.8320,0.16516474
2.8340,0.27163973
2.8360,0.37447613
2.8380,0.29027504
2.8400,0.25138366
2.8420,0.07634421
2.8440,-0.13167720
2.8460,-0.06387183
2.8480,-0.66624945
2.8500,-0.93576741
2.8520,-0.93053812
2.8540,-0.77140212
2.8560,-0.47012970
2.8580,-0.36139876
2.8600,-0.05959568
2.8620,-0.10894772
2.8640,-0.32763204
2.8660,-0.30452856
2.8680,-0.01813126
2.8700,-0.16753492
2.8720,0.40086773
2.8740,-0.25272593
2.8760,0.08332584
2.8780,0.17420772
2.8800,0.01894868
2.8820,-0.13825110
2.8840,-0.28191835
2.8860,-0.63141066
2.8880,-0.72029334
2.8900,-0.76612389
2.8920,-0.81053251
2.8940,-0.82505989
2.8960,-0.80837774
2.8980,-0.82198358
2.9000,-0.49562275
2.9020,-0.33503401
2.9040,-0.03117034
2.9060,-0.18160151
2.9080,0.03445365
2.9100,0.42456973
2.9120,-0.13592792
2.9140,0.11603896
2.9160,0.08183767
2.9180,0.08286488
2.9200,-0.15411106
2.9220,0.12343442
2.9240,-0.26064622
2.9260,-0.07637502
2.9280,0.02113450
2.9300,-0.16878606
2.9320,0.24713546
2.9340,0.33006641
2.9360,0.05895173
2.9380,0.27195382
2.9400,0.14759634
2.9420,0.33441961
2.9440,0.03818102
2.9460,0.15364352
2.9480,0.08690275
2.9500,0.07627484
2.9520,0.02878549
2.9540,0.58414954
2.9560,0.23052751
2.9580,0.29559278
2.9600,0.32018581
2.9620,0.03682547
2.9640,0.05717783
2.9660,0.07256356
2.9680,-0.07164976
2.9700,0.11539520
2.9720,0.06879224
2.9740,0.05220066
2.9760,0.01397835
2.9780,0.10637489
2.9800,0.26001489
2.9820,0.17527807
2.9840,-0.15951361
2.9860,0.32487473
2.9880,-0.28976327
2.9900,-0.20013428
2.9920,-0.13746165
2.9940,0.03742095
2.9960,0.03634278
2.9980,-0.09507616
3.0000,-0.21249783
3.0020,-0.14211781
3.0040,-0.14000626
3.0060,-0.30884841
3.0080,-0.38684955
3.0100,-0.10738953
3.0120,-0.08310334
3.0140,0.04582150
3.0160,0.29265636
3.0180,-0.19786349
3.0200,-0.11775376
3.0220,-0.14013152
3.0240,0.04601866
3.0260,-0.34265333
3.0280,-0.15880053
3.0300,-0.25636128
3.0320,-0.30021572
3.0340,-0.24734823
3.0360,-0.08343354
3.0380,-0.03385405
3.0400,-0.23337661
3.0420,-0.19634518
3.0440,-0.16837250
3.0460,-0.10788464
3.0480,-0.12633729
3.0500,-0.22257160
3.0520,-0.32719272
3.0540,-0.23247804
3.0560,0.50867039
3.0580,-0.49699417
3.0600,-0.25397930
3.0620,-0.08848311
3.0640,0.01652996
3.0660,0.03643454
3.0680,0.47675627
3.0700,-0.27388996
3.0720,-0.36246434
3.0740,0.09639794
3.0760,0.07538459
3.0780,0.12123659
3.0800,0.22376166
3.0820,0.06113235
3.0840,-0.04800978
3.0860,-0.00169077
3.0880,0.30200380
3.0900,0.01412843
3.0920,0.11929999
3.0940,0.15720873
3.0960,0.17219037
3.0980,0.14221314
3.1000,0.31099308
3.1020,0.06002904
3.1040,0.34435230
3.1060,0.53789419
3.1080,0.45251730
3.1100,0.36773789
3.1120,0.33542973
3.1140,0.37722337
3.1160,0.55637223
3.1180,0.50020778
3.1200,0.18040100
3.1220,0.09171916
3.1240,-0.06215531
3.1260,0.02575750
3.1280,-0.51255339
3.1300,-0.51175690
3.1320,-0.55080825
3.1340,-0.46955007
3.1360,-0.73222572
3.1380,-0.48034799
3.1400,-0.41206208
3.1420,-0.06415144
3.1440,0.52637219
3.1460,0.20050332
3.1480,0.25904539
3.1500,0.28425789
3.1520,0.10524897
3.1540,0.09181678
3.1560,0.15374984
3.1580,0.14866154
3.1600,-0.42561185
3.1620,0.01761742
3.1640,0.29082307
3.1660,0.30750558
3.1680,0.34250414
3.1700,0.23567685
3.1720,0.12859109
3.1740,0.35311830
3.1760,0.40162185
3.1780,0.17674263
3.1800,-0.05871692
3.1820,-0.01305986
3.1840,0.14474846
3.1860,-0.38217708
3.1880,-0.24238740
3.1900,-0.13014111
3.1920,-0.00951291
3.1940,0.70123732
3.1960,0.95665497
3.1980,0.84051025
3.2000,0.76651210
3.2020,-0.10670490
3.2040,-0.10203626
3.2060,0.39200753
3.2080,0.24675068
3.2100,0.20397934
3.2120,0.35022962
3.2140,0.21138464
3.2160,0.11901803
3.2180,-0.04888322
3.2200,-0.00516869
3.2220,-0.20466189
3.2240,0.38864884
3.2260,0.13157877
3.2280,-0.02835155
3.2300,-0.02773541
3.2320,-0.19884652
3.2340,-0.02895290
3.2360,-0.03094377
3.2380,0.21199742
3.2400,0.17597355
3.2420,0.07927059
3.2440,0.08233526
3.2460,-0.36226371
3.2480,-0.54784673
3.2500,-0.07173754
3.2520,0.05169712
3.2540,0.20975639
3.2560,0.07277331
3.2580,0.10193506
3.2600,-0.00358447
3.2620,0.02808106
3.2640,0.02178872
3.2660,0.01504302
3.2680,-0.03673555
3.2700,0.00032109
3.2720,0.13070907
3.2740,-0.05578471
3.2760,0.08856459
3.2780,0.12727815
3.2800,-0.03925660
3.2820,-0.16162646
3.2840,-0.11237163
3.2860,-0.08336721
3.2880,-0.11548962
3.2900,-0.06519348
3.2920,-0.10533407
3.2940,-0.05779234
3.2960,-0.20617612
3.2980,0.09216098
3.3000,0.13857397
3.3020,0.21901223
3.3040,-0.22584851
3.3060,-0.12126477
3.3080,-0.15589100
3.3100,-0.29391685
3.3120,0.07081955
3.3140,-0.23160692
3.3160,-0.05044124
3.3180,0.10339256
3.3200,-0.16825944
3.3220,0.02295397
3.3240,-0.37615111
3.3260,-0.11345348
3.3280,0.34153777
3.3300,-0.37984326
3.3320,-0.38149315
3.3340,-0.44528374
3.3360,-0.14607149
3.3380,-0.13287473
3.3400,-0.26865894
3.3420,-0.40704358
3.3440,-0.11611012
3.3460,-0.15193348
3.3480,0.13784513
3.3500,-0.02118647
3.3520,0.20769581
3.3540,0.43573114
3.3560,-0.41531372
3.3580,-0.06468233
3.3600,0.38490504
3.3620,-0.45490170
3.3640,-0.29169416
3.3660,-0.57383817
3.3680,0.09947316
3.3700,-0.13294291
3.3720,0.10130057
3.3740,-0.24824257
3.3760,0.14538354
3.3780,-0.51227725
3.3800,0.51475775
3.3820,0.28219810
3.3840,0.36122391
3.3860,0.17191365
3.3880,-0.24408914
3.3900,-0.02979938
3.3920,0.47256073
3.3940,-0.15538597
3.3960,0.00535825
3.3980,-0.23607855
3.4000,-0.30244833
3.4020,-0.16424057
3.4040,0.06505895
3.4060,0.38596976
3.4080,0.58458984
3.4100,0.80381972
3.4120,0.61718172
3.4140,0.12834321
3.4160,0.00644883
3.4180,-0.65743047
3.4200,-0.47125295
3.4220,-0.03390555
3.4240,-0.03333019
3.4260,-0.07303901
3.4280,-0.17773740
3.4300,0.31340867
3.4320,-0.17616853
3.4340,0.06457107
3.4360,-0.03003068
3.4380,-0.06136167
3.4400,0.30153877
3.4420,0.24388753
3.4440,0.57658607
3.4460,0.13054481
3.4480,0.13202764
3.4500,0.05423161
3.4520,-0.08971337
3.4540,-0.35590920
3.4560,-0.11865827
3.4580,-0.35297725
3.4600,0.52951699
3.4620,0.26933181
3.4640,0.38940811
3.4660,-0.05234870
3.4680,0.06619425
3.4700,0.15015332
3.4720,0.09283482
3.4740,-0.02317979
3.4760,0.12675245
3.4780,-0.46196440
3.4800,-0.30381846
3.4820,-0.25662082
3.4840,-0.02906175
3.4860,-0.11454161
3.4880,0.18634205
3.4900,0.21594091
3.4920,0.63948560
3.4940,0.27607897
3.4960,-0.21543846
3.4980,-0.17437077
3.5000,-0.31726030
3.5020,-0.50735807
3.5040,0.00184788
3.5060,-0.23049034
3.5080,-0.35825825
3.5100,-0.28432214
3.5120,-0.24788757
3.5140,-0.04332938
3.5160,-0.16799557
3.5180,-0.01518298
3.5200,0.03240066
3.5220,-0.05918640
3.5240,0.07926974
3.5260,0.24991387
3.5280,-0.17405850
3.5300,-0.14342801
3.5320,-0.36033431
3.5340,-0.36514536
3.5360,-0.31402838
3.5380,-0.30177990
3.5400,-0.17450255
3.5420,-0.12351157
3.5440,0.09816747
3.5460,0.37040913
3.5480,0.41242880
3.5500,0.24446133
3.5520,-0.20153973
3.5540,-0.42347294
3.5560,-0.28852829
3.5580,-0.15125148
3.5600,-0.35793254
3.5620,-0.14679079
3.5640,-0.07919049
3.5660,-0.05781933
3.5680,-0.09266125
3.5700,-0.17704341
3.5720,-0.07647564
3.5740,-0.12733652
3.5760,-0.21760148
3.5780,0.12473482
3.5800,-0.00850366
3.5820,0.10933379
3.5840,-0.44333035
3.5860,-0.08752875
3.5880,-0.07842030
3.5900,-0.08175471
3.5920,-0.12959746
3.5940,-0.31437674
3.5960,-0.22811204
3.5980,-0.12130106
3.6000,-0.05558541
3.6020,-0.07104566
3.6040,-0.08725365
3.6060,-0.17426385
3.6080,-0.60015941
3.6100,-0.54723591
3.6120,-0.47896364
3.6140,-0.40796542
3.6160,0.27536505
3.6180,0.40989381
3.6200,-0.13917691
3.6220,-0.13594924
3.6240,-0.07209822
3.6260,-0.04581790
3.6280,0.17578521
3.6300,0.45223680
3.6320,0.43788463
3.6340,0.29076004
3.6360,0.26908758
3.6380,-0.10400315
3.6400,-0.37089679
3.6420,-0.33293480
3.6440,0.05604606
3.6460,0.23971795
3.6480,0.67928100
3.6500,0.46722576
3.6520,-0.17066677
3.6540,-0.19934538
3.6560,-0.14260450
3.6580,-0.22885124
3.6600,0.15757300
3.6620,-0.11388703
3.6640,-0.16763926
3.6660,-0.37856615
3.6680,-0.27177754
3.6700,-0.03645087
3.6720,-0.36121991
3.6740,0.46029851
3.6760,0.57735837
3.6780,0.41495064
3.6800,-0.18089981
3.6820,-0.40517640
3.6840,-0.09565904
3.6860,0.05727584
3.6880,0.06944831
3.6900,0.06721163
3.6920,-0.00342321
3.6940,-0.52878690
3.6960,-0.24713692
3.6980,-0.15872742
3.7000,-0.08943220
3.7020,0.11207104
3.7040,0.12179200
3.7060,0.35595721
3.7080,0.32491350
3.7100,0.20270766
3.7120,-0.12381888
3.7140,-0.01935317
3.7160,-0.18235013
3.7180,-0.13239217
3.7200,0.22577357
3.7220,0.10626161
3.7240,0.48919603
3.7260,0.09747732
3.7280,-0.06183939
3.7300,-0.25211257
3.7320,-0.16998993
3.7340,-0.02328949
3.7360,-0.11980370
3.7380,-0.36798632
3.7400,-0.25247189
3.7420,-0.31477299
3.7440,-0.11616270
3.7460,-0.07567637
3.7480,0.03177315
3.7500,0.15875110
3.7520,0.53468716
3.7540,0.16898388
3.7560,0.24804145
3.7580,0.15323560
3.7600,0.08141872
3.7620,0.17028224
3.7640,0.08016759
3.7660,-0.30944797
3.7680,0.07448810
3.7700,-0.33623812
3.7720,0.11841927
3.7740,0.22396813
3.7760,0.36764672
3.7780,0.14972769
3.7800,-0.07640479
3.7820,-0.00508500
3.7840,-0.05468900
3.7860,0.02691625
3.7880,-0.15519273
3.7900,-0.08332477
3.7920,-0.24635336
3.7940,-0.14883387
3.7960,-0.22225758
3.7980,-0.00676868
3.8000,0.37075725
3.8020,0.43763462
3.8040,0.36001649
3.8060,0.44363213
3.8080,0.18959841
3.8100,-0.36134669
3.8120,0.17563727
3.8140,0.03499520
3.8160,-0.06521623
3.8180,-0.26882404
3.8200,-0.41312870
3.8220,0.14801615
3.8240,-0.22705385
3.8260,0.55930316
3.8280,0.57077485
3.8300,0.38272884
3.8320,0.01105583
3.8340,-0.16639057
3.8360,-0.32281011
3.8380,0.33546808
3.8400,-0.25020111
3.8420,-0.26580551
3.8440,0.06358437
3.8460,-0.16339763
3.8480,-0.15372214
3.8500,-0.07925702
3.8520,-0.00072061
3.8540,-0.01039468
3.8560,0.38551265
3.8580,0.03441490
3.8600,0.02600092
3.8620,-0.10732534
3.8640,-0.35105163
3.8660,-0.48194224
3.8680,-0.43844846
3.8700,0.05581051
3.8720,-0.33005053
3.8740,-0.53875852
3.8760,0.03940075
3.8780,-0.42895693
3.8800,-0.54586178
3.8820,-0.69591022
3.8840,0.18845248
3.8860,0.10285498
3.8880,-0.03463678
3.8900,-0.33384702
3.8920,-0.10122615
3.8940,0.13746452
3.8960,-0.07997827
3.8980,-0.55144083
3.9000,-0.48056471
3.9020,-0.17939071
3.9040,-0.13798468
3.9060,-0.07986795
3.9080,0.22562933
3.9100,0.23196803
3.9120,-0.19329737
3.9140,-0.05053860
3.9160,0.04337032
3.9180,0.19969535
3.9200,-0.13975352
3.9220,-0.11340586
3.9240,-0.11218186
3.9260,-0.11463278
3.9280,0.21031463
3.9300,0.02952072
3.9320,0.21994162
3.9340,0.12564552
3.9360,0.15977542
3.9380,0.26513994
3.9400,0.16888396
3.9420,0.38091037
3.9440,0.02082475
3.9460,0.12966229
3.9480,-0.18111457
3.9500,-0.05744379
3.9520,0.27323598
3.9540,0.25993115
3.9560,0.06761570
3.9580,-0.20820807
3.9600,-0.03127946
3.9620,-0.13134931
3.9640,0.21520048
3.9660,0.07764967
3.9680,-0.09043384
3.9700,0.03273051
3.9720,-0.30012852
3.9740,-0.01158884
3.9760,-0.05075352
3.9780,-0.00468060
3.9800,0.29928753
3.9820,0.20929322
3.9840,0.18886453
3.9860,0.46416950
3.9880,-0.08809295
3.9900,-0.18178417
3.9920,-0.13895184
3.9940,-0.29120287
3.9960,-0.02085560
3.9980,0.09214150
4.0000,0.22163473
4.0020,0.12225612
4.0040,-0.11600981
4.0060,-0.25240773
4.0080,-0.28793341
4.0100,-0.02418879
4.0120,-0.07416734
4.0140,-0.03611488
4.0160,-0.08811226
4.0180,0.05445558
4.0200,-0.03415829
4.0220,0.38104832
4.0240,0.11504440
4.0260,-0.01190291
4.0280,-0.01161627
4.0300,-0.09065869
4.0320,0.57523733
4.0340,0.21169673
4.0360,-0.00896594
4.0380,0.07656459
4.0400,-0.17220427
4.0420,0.05088525
4.0440,-0.20476605
4.0460,-0.23946516
4.0480,-0.09201896
4.0500,0.38576588
4.0520,0.29904142
4.0540,0.42141205
4.0560,-0.00735134
4.0580,-0.42071968
4.0600,-0.47022188
4.0620,-0.50805408
4.0640,0.01719671
4.0660,-0.07249713
4.0680,-0.15257798
4.0700,-0.32369664
4.0720,0.18039106
4.0740,-0.11681835
4.0760,-0.01618679
4.0780,0.03236826
4.0800,-0.20721358
4.0820,0.35130242
4.0840,0.09154394
4.0860,-0.00398982
4.0880,-0.10652193
4.0900,-0.01753657
4.0920,-0.01139935
4.0940,-0.01629869
4.0960,-0.08301861
4.0980,0.01502037
4.1000,0.00886256
4.1020,0.04209036
4.1040,0.38363340
4.1060,-0.25723630
4.1080,-0.13940698
4.1100,0.27354464
4.1120,-0.37706223
4.1140,-0.21499248
4.1160,-0.06983395
4.1180,-0.10784236
4.1200,0.00691905
4.1220,-0.09074986
4.1240,-0.11658217
4.1260,-0.10936698
4.1280,0.03052864
4.1300,-0.06480328
4.1320,-0.24420688
4.1340,-0.21668403
4.1360,-0.08003834
4.1380,0.05182513
4.1400,-0.02549228
4.1420,0.04015585
4.1440,0.21963117
4.1460,-0.32419926
4.1480,0.22107123
4.1500,0.02098788
4.1520,0.04925044
4.1540,-0.04837642
4.1560,0.12601788
4.1580,0.13124242
4.1600,-0.08321194
4.1620,0.29856291
4.1640,0.08381260
4.1660,-0.12841870
4.1680,-0.22065587
4.1700,-0.03401690
4.1720,-0.06740827
4.1740,-0.02816732
4.1760,-0.03734188
4.1780,0.09200668
4.1800,0.28561646
4.1820,-0.26884779
4.1840,-0.33850759
4.1860,-0.03008624
4.1880,0.03549922
4.1900,-0.19809055
4.1920,0.16583832
4.1940,0.00179837
4.1960,-0.06131279
4.1980,-0.13986959
4.2000,-0.21074615
4.2020,-0.03371510
4.2040,-0.02846699
4.2060,-0.01255967
4.2080,0.55162585
4.2100,0.48264959
4.2120,0.35187593
4.2140,0.10728163
4.2160,-0.15185520
4.2180,-0.20677051
4.2200,0.35962096
4.2220,0.09557547
4.2240,-0.09705700
4.2260,0.04795057
4.2280,-0.04856760
4.2300,0.03621200
4.2320,0.02985339
4.2340,0.08645644
4.2360,0.17263590
4.2380,0.18896948
4.2400,0.02955470
4.2420,0.02015048
4.2440,-0.04364001
4.2460,-0.09392832
4.2480,-0.04831941
4.2500,0.40462136
4.2520,0.18989581
4.2540,0.35101622
4.2560,-0.13329364
4.2580,0.03917302
4.2600,-0.16955483
4.2620,0.14396247
4.2640,-0.11767621
4.2660,-0.04399469
4.2680,-0.03068526
4.2700,-0.11110743
4.2720,-0.15145846
4.2740,0.26316065
4.2760,0.16248396
4.2780,0.25040835
4.2800,0.05767728
4.2820,-0.28890675
4.2840,-0.23484018
4.2860,0.12528539
4.2880,0.14422539
4.2900,0.15390678
4.2920,0.03246325
4.2940,-0.10012367
4.2960,0.10539191
4.2980,-0.09259435
4.3000,-0.02188374
4.3020,0.05534840
4.3040,0.03845819
4.3060,0.07189140
4.3080,0.16806993
4.3100,0.19965044
4.3120,-0.02304005
4.3140,0.03060200
4.3160,-0.09629360
4.3180,0.11915942
4.3200,0.32592323
4.3220,-0.12660283
4.3240,-0.13019808
4.3260,-0.13174546
4.3280,-0.01554216
4.3300,-0.03740212
4.3320,0.09425121
4.3340,0.00335878
4.3360,0.24005246
4.3380,-0.10389378
4.3400,-0.11310971
4.3420,-0.17082731
4.3440,-0.06139924
4.3460,-0.10627776
4.3480,0.04043756
4.3500,-0.20507719
4.3520,-0.16139211
4.3540,-0.06036121
4.3560,-0.13756670
4.3580,0.11279793
4.3600,0.13459654
4.3620,0.06959730
4.3640,0.00107541
4.3660,-0.03315947
4.3680,0.04473991
4.3700,-0.15733591
4.3720,-0.19919002
4.3740,-0.23800176
4.3760,-0.14214668
4.3780,0.37094334
4.3800,0.26734900
4.3820,0.48473898
4.3840,-0.09197515
4.3860,-0.12611930
4.3880,0.05907303
4.3900,0.13925977
4.3920,0.08241628
4.3940,-0.48799711
4.3960,-0.68599188
4.3980,-0.26038352
4.4000,0.32063547
4.4020,-0.09890665
4.4040,0.01515702
4.4060,0.16796564
4.4080,-0.12011693
4.4100,0.29266348
4.4120,0.30501133
4.4140,0.30321294
4.4160,-0.15153062
4.4180,-0.05682286
4.4200,-0.16794984
4.4220,-0.30816668
4.4240,-0.35449007
4.4260,0.40810511
4.4280,0.39464754
4.4300,0.20307069
4.4320,0.10008717
4.4340,0.22795166
4.4360,0.29010022
4.4380,0.05397850
4.4400,-0.31802952
4.4420,-0.37370580
4.4440,-0.36265847
4.4460,-0.51865232
4.4480,-0.34741729
4.4500,-0.23296326
4.4520,-0.02787239
4.4540,0.17031953
4.4560,-0.15023173
4.4580,-0.16979404
4.4600,0.00306491
4.4620,-0.10953347
4.4640,0.10989213
4.4660,0.16696270
4.4680,0.22665077
4.4700,0.16097845
4.4720,-0.12763166
4.4740,0.21454257
4.4760,0.03904110
4.4780,0.20569937
4.4800,0.13996515
4.4820,-0.06535536
4.4840,0.03708342
4.4860,-0.00989361
4.4880,0.06315622
4.4900,0.16370842
4.4920,-0.30095446
4.4940,0.07743298
4.4960,0.10068982
4.4980,-0.00403688
4.5000,-0.15549989
4.5020,-0.18188263
4.5040,-0.06101441
4.5060,0.28045887
4.5080,0.22753549
4.5100,0.25566769
4.5120,0.02939158
4.5140,0.07619485
4.5160,-0.04858005
4.5180,0.07221169
4.5200,-0.12001693
4.5220,-0.09411187
4.5240,0.24374717
4.5260,0.03130142
4.5280,0.18438438
4.5300,0.07384784
4.5320,0.25436896
4.5340,0.40707600
4.5360,0.23561628
4.5380,-0.25277379
4.5400,-0.22993790
4.5420,-0.19477393
4.5440,-0.31111726
4.5460,-0.41848120
4.5480,-0.18394788
4.5500,0.01795077
4.5520,-0.14355084
4.5540,-0.29350308
4.5560,-0.39863619
4.5580,-0.19355854
4.5600,0.05132659
4.5620,-0.17407723
4.5640,-0.25237483
4.5660,-0.25260311
4.5680,-0.22846000
4.5700,-0.12590687
4.5720,-0.15145463
4.5740,-0.20735914
4.5760,0.01872627
4.5780,-0.33418474
4.5800,-0.14818247
4.5820,-0.07001120
4.5840,0.01032700
4.5860,0.04924345
4.5880,0.00759125
4.5900,-0.01308218
4.5920,0.24325380
4.5940,0.08938130
4.5960,-0.12174776
4.5980,-0.07032517
4.6000,-0.22869807
4.6020,-0.45852438
4.6040,0.02891384
4.6060,0.13711742
4.6080,0.39785916
4.6100,0.09860253
4.6120,-0.23544919
4.6140,-0.26025417
4.6160,-0.21840838
4.6180,-0.12921377
4.6200,-0.04290221
4.6220,-0.12328789
4.6240,-0.09969523
4.6260,-0.50651217
4.6280,-0.11681922
4.6300,-0.21652249
4.6320,-0.04373347
4.6340,0.02615827
4.6360,-0.14825073
4.6380,-0.29050219
4.6400,0.28231332
4.6420,-0.13519208
4.6440,-0.00238598
4.6460,-0.09634952
4.6480,0.21674299
4.6500,0.26981986
4.6520,0.51675355
4.6540,0.16320889
4.6560,0.28340349
4.6580,-0.28596103
4.6600,-0.20481101
4.6620,0.05579427
4.6640,-0.09099805
4.6660,0.70109487
4.6680,1.00000000
4.6700,0.07821748
4.6720,0.15305015
4.6740,-0.11701486
4.6760,-0.19760998
4.6780,-0.11309445
4.6800,0.09298620
4.6820,-0.14962023
4.6840,-0.15702534
4.6860,0.04914861
4.6880,-0.08791895
4.6900,0.07874243
4.6920,0.07243048
4.6940,0.06994168
4.6960,-0.47638565
4.6980,0.33585185
4.7000,0.23125997
4.7020,0.30764723
4.7040,-0.05088561
4.7060,-0.09337886
4.7080,-0.03888800
4.7100,0.00777672
4.7120,-0.18632175
4.7140,0.15160704
4.7160,-0.08091616
4.7180,0.08191087
4.7200,-0.12296542
4.7220,-0.36337680
4.7240,-0.17273216
4.7260,0.04635395
4.7280,0.11117190
4.7300,0.20463321
4.7320,0.20511407
4.7340,0.50502270
4.7360,0.08076566
4.7380,0.09471889
4.7400,-0.21196362
4.7420,-0.03477968
4.7440,-0.32516611
4.7460,0.25445050
4.7480,0.05056974
4.7500,0.56601888
4.7520,0.22757709
4.7540,-0.25130609
4.7560,-0.03204051
4.7580,-0.03995481
4.7600,0.12148903
4.7620,0.08274275
4.7640,0.33614314
4.7660,0.04114115
4.7680,-0.22871262
4.7700,0.33837086
4.7720,-0.04793678
4.7740,0.08432721
4.7760,-0.17078964
4.7780,0.02502747
4.7800,0.09289021
4.7820,0.42131722
4.7840,0.28037688
4.7860,0.05875811
4.7880,0.04712744
4.7900,-0.05703729
4.7920,0.09715554
4.7940,-0.51788253
4.7960,-0.23076332
4.7980,-0.23176552
4.8000,0.05583591
4.8020,-0.19356672
4.8040,-0.09571395
4.8060,0.14702041
4.8080,0.11840536
4.8100,0.38452303
4.8120,0.10890033
4.8140,0.25192517
4.8160,0.34364024
4.8180,-0.05805418
4.8200,-0.09337375
4.8220,-0.24806134
4.8240,0.03613615
4.8260,-0.24026003
4.8280,0.11187595
4.8300,0.02392095
4.8320,0.18199271
4.8340,0.26914868
4.8360,-0.12593366
4.8380,0.19775338
4.8400,0.03514944
4.8420,-0.18244331
4.8440,-0.25872654
4.8460,-0.20324896
4.8480,-0.26922551
4.8500,0.04569487
4.8520,0.00521339
4.8540,0.44743758
4.8560,0.39661771
4.8580,0.28497264
4.8600,0.18188320
4.8620,-0.13590328
4.8640,-0.09361611
4.8660,0.10996711
4.8680,0.14588410
4.8700,0.20036297
4.8720,-0.09263317
4.8740,-0.11063972
4.8760,-0.18638737
4.8780,0.37612742
4.8800,0.02572128
4.8820,0.57433569
4.8840,0.11881600
4.8860,0.06884170
4.8880,0.12120450
4.8900,-0.68011767
4.8920,-0.15976669
4.8940,-0.26829720
4.8960,-0.10209771
4.8980,0.17307247
4.9000,0.15293647
4.9020,0.19952588
4.9040,-0.39562532
4.9060,-0.27058247
4.9080,-0.12036950
4.9100,0.00646443
4.9120,0.18167424
4.9140,-0.09852961
4.9160,-0.22573802
4.9180,-0.14141753
4.9200,0.10034706
4.9220,-0.04485996
4.9240,0.06840668
4.9260,0.44626084
4.9280,0.08536749
4.9300,-0.06723887
4.9320,-0.03624061
4.9340,-0.05568561
4.9360,-0.13739701
4.9380,0.08521246
4.9400,0.26388261
4.9420,-0.02186241
4.9440,0.07998707
4.9460,0.05362098
4.9480,0.12525815
4.9500,-0.18478367
4.9520,0.05403350
4.9540,-0.17981501
4.9560,-0.22853361
4.9580,-0.26163581
4.9600,-0.07888400
4.9620,-0.19080262
4.9640,-0.11248183
4.9660,0.01740308
4.9680,-0.14877872
4.9700,-0.00441307
4.9720,0.05158190
4.9740,-0.23418491
4.9760,-0.07295001
4.9780,0.08617651
4.9800,-0.09876960
4.9820,-0.72452533
4.9840,0.42034200
4.9860,-0.03209557
4.9880,0.19222458
4.9900,0.05781727
4.9920,0.17463043
4.9940,0.00587609
4.9960,-0.08872933
4.9980,-0.03886971
5.0000,0.07182655
5.0020,-0.09401397
5.0040,-0.08000129
5.0060,0.19703799
5.0080,-0.06009540
5.0100,-0.01868211
5.0120,-0.08514044
5.0140,-0.08892681
5.0160,-0.13518740
5.0180,-0.03576048
5.0200,-0.15675302
5.0220,-0.18309340
5.0240,-0.07391290
5.0260,-0.08926358
5.0280,-0.03330140
5.0300,-0.10618598
5.0320,0.07849696
5.0340,-0.04918297
5.0360,0.05362021
5.0380,0.43105707
5.0400,0.18907858
5.0420,0.20970032
5.0440,0.06688997
5.0460,-0.00566865
5.0480,-0.19291578
5.0500,-0.14941975
5.0520,0.02936651
5.0540,0.12778772
5.0560,0.32553190
5.0580,0.25846308
5.0600,-0.14418721
5.0620,0.06936294
5.0640,-0.04278395
5.0660,-0.04561248
5.0680,0.03522658
5.0700,0.09256049
5.0720,-0.34450859
5.0740,-0.41304386
5.0760,0.10247348
5.0780,0.17696716
5.0800,-0.01706334
5.0820,0.00315854
5.0840,-0.03911745
5.0860,-0.07385252
5.0880,-0.09752519
5.0900,-0.15476449
5.0920,-0.26800260
5.0940,0.03005880
5.0960,0.23156536
5.0980,0.14603467
5.1000,0.16577908
5.1020,0.17311236
5.1040,-0.06082576
5.1060,-0.54710275
5.1080,0.23986873
5.1100,0.37146887
5.1120,0.00799330
5.1140,0.16950415
5.1160,-0.15599504
5.1180,-0.13173784
5.1200,0.03310704
5.1220,-0.10616449
5.1240,-0.06986546
5.1260,0.27650058
5.1280,0.04585090
5.1300,0.01025826
5.1320,-0.46920049
5.1340,-0.56996059
5.1360,0.10051743
5.1380,-0.17884816
5.1400,-0.01123134
5.1420,0.12060657
5.1440,-0.08316575
5.1460,0.19888268
5.1480,-0.05656375
5.1500,-0.13851427
5.1520,-0.06287976
5.1540,-0.39650270
5.1560,-0.45772618
5.1580,-0.32465953
5.1600,-0.36060619
5.1620,-0.16249920
5.1640,-0.22891036
5.1660,-0.05664014
5.1680,0.14853804
5.1700,-0.13739626
5.1720,-0.23372397
5.1740,0.02823142
5.1760,-0.25327179
5.1780,-0.09479354
5.1800,0.02864923
5.1820,-0.10305245
5.1840,0.05181250
5.1860,-0.11365948
5.1880,-0.03434347
5.1900,-0.09095686
5.1920,-0.07807804
5.1940,-0.04595040
5.1960,0.06340872
5.1980,0.10417642
5.2000,0.25867224
5.2020,-0.28027102
5.2040,-0.32199809
5.2060,-0.05638435
5.2080,-0.17999567
5.2100,-0.12126458
5.2120,-0.16667540
5.2140,-0.21121657
5.2160,-0.22356288
5.2180,0.16227295
5.2200,-0.26360023
5.2220,-0.04414937
5.2240,-0.13782451
5.2260,-0.02411309
5.2280,-0.17655092
5.2300,-0.17322974
5.2320,-0.14841618
5.2340,0.38277340
5.2360,-0.07635397
5.2380,-0.20001206
5.2400,-0.26242647
5.2420,-0.26998433
5.2440,-0.25082073
5.2460,-0.07604751
5.2480,-0.06138754
5.2500,0.14373599
5.2520,-0.33418199
5.2540,-0.48976174
5.2560,-0.37918171
5.2580,-0.14077079
5.2600,0.04740559
5.2620,0.28719196
5.2640,0.09648605
5.2660,-0.42061195
5.2680,-0.46812418
5.2700,-0.39993370
5.2720,0.16518165
5.2740,0.20182963
5.2760,0.10866410
5.2780,0.13984402
5.2800,-0.40078509
5.2820,-0.10296221
5.2840,-0.25934938
5.2860,0.04337707
5.2880,-0.00292932
5.2900,-0.28538185
5.2920,-0.02028013
5.2940,0.24085830
5.2960,0.07342056
5.2980,-0.05678992
5.3000,-0.17566197
5.3020,0.05630501
5.3040,-0.04304332
5.3060,0.03835264
5.3080,0.08346101
5.3100,0.07860793
5.3120,-0.01654056
5.3140,0.06919795
5.3160,0.09070712
5.3180,0.15201902
5.3200,0.13852350
5.3220,-0.00716764
5.3240,-0.03040730
5.3260,-0.07785817
5.3280,0.02082602
5.3300,0.06182115
5.3320,0.41298085
5.3340,-0.08283399
5.3360,-0.26055002
5.3380,-0.09781734
5.3400,-0.02493731
5.3420,-0.05015566
5.3440,-0.02019097
5.3460,-0.10525139
5.3480,-0.24337623
5.3500,-0.17232034
5.3520,-0.33876231
5.3540,0.17180499
5.3560,-0.22401077
5.3580,0.06036825
5.3600,0.40353143
5.3620,-0.01134598
5.3640,-0.05072171
5.3660,-0.14822683
5.3680,-0.37924579
5.3700,0.08008847
5.3720,0.05762683
5.3740,0.18150546
5.3760,-0.10850345
5.3780,-0.11621018
5.3800,-0.06582557
5.3820,0.27558208
5.3840,0.33345541
5.3860,-0.10300685
5.3880,-0.43384179
5.3900,-0.38462889
5.3920,0.02248169
5.3940,-0.50886315
5.3960,0.03001840
5.3980,-0.01000261
5.4000,-0.04760752
5.4020,0.38198256
5.4040,0.34376705
5.4060,0.40157807
5.4080,0.24154511
5.4100,-0.07626991
5.4120,0.03924512
5.4140,-0.15744036
5.4160,0.31428400
5.4180,-0.44791722
5.4200,0.03142821
5.4220,0.00982071
5.4240,-0.09794281
5.4260,-0.17801367
5.4280,0.02182361
5.4300,0.26523024
5.4320,0.20967299
5.4340,-0.24480250
5.4360,-0.31935066
5.4380,-0.18918873
5.4400,-0.46833661
5.4420,-0.36485305
5.4440,-0.31112140
5.4460,-0.02104961
5.4480,0.65566593
5.4500,0.32155943
5.4520,0.54390740
5.4540,0.44530830
5.4560,0.17510149
5.4580,-0.09177624
5.4600,-0.40015522
5.4620,0.07162521
5.4640,0.12443958
5.4660,0.51270974
5.4680,0.44326109
5.4700,0.76975191
5.4720,0.24443775
5.4740,0.01382758
5.4760,-0.10466637
5.4780,0.01635560
5.4800,0.05306440
5.4820,0.12701701
5.4840,-0.03455974
5.4860,-0.19704768
5.4880,0.02531528
5.4900,0.10696898
5.4920,0.18756403
5.4940,-0.00036245
5.4960,0.38071215
5.4980,0.49465373
5.5000,0.34256628
5.5020,0.49972028
5.5040,0.20930329
5.5060,0.62001765
5.5080,0.10635523
5.5100,-0.31242499
5.5120,-0.46194965
5.5140,-0.31092000
5.5160,0.02608999
5.5180,0.01523017
5.5200,0.38952976
5.5220,0.13004941
5.5240,-0.05500631
5.5260,0.04405707
5.5280,-0.04706697
5.5300,-0.13305429
5.5320,-0.31937212
5.5340,-0.21461800
5.5360,0.14991589
5.5380,0.20657472
5.5400,0.38311204
5.5420,-0.33585384
5.5440,-0.47250664
5.5460,0.09222936
5.5480,-0.20451425
5.5500,-0.13663772
5.5520,-0.16535552
5.5540,-0.30903232
5.5560,-0.26792917
5.5580,-0.18802379
5.5600,0.21774124
5.5620,0.03476905
5.5640,0.21638370
5.5660,0.09869714
5.5680,0.06247570
5.5700,-0.13098510
5.5720,-0.42701921
5.5740,-0.23762327
5.5760,-0.01201454
5.5780,0.29905748
5.5800,0.41241446
5.5820,-0.32381958
5.5840,-0.25708655
5.5860,-0.28859878
5.5880,-0.17557269
5.5900,-0.29927146
5.5920,0.16745889
5.5940,-0.27813438
5.5960,-0.14111079
5.5980,-0.38759547
5.6000,-0.24944910
5.6020,-0.16750094
5.6040,-0.18370987
5.6060,-0.05918783
5.6080,-0.22987306
5.6100,0.03503255
5.6120,0.18851404
5.6140,-0.05933091
5.6160,-0.05267562
5.6180,-0.05840065
5.6200,-0.06623057
5.6220,0.24676669
5.6240,0.04223326
5.6260,-0.44342205
5.6280,-0.34880939
5.6300,-0.38232514
5.6320,-0.16430548
5.6340,-0.08804269
5.6360,-0.04487336
5.6380,-0.12484580
5.6400,0.22756284
5.6420,-0.12486465
5.6440,-0.28823566
5.6460,-0.13030167
5.6480,-0.50016534
5.6500,0.50587314
5.6520,0.48330167
5.6540,0.16319802
5.6560,0.10897747
5.6580,-0.41731924
5.6600,-0.15699741
5.6620,-0.13543895
5.6640,-0.17947422
5.6660,0.19423240
5.6680,-0.24310768
5.6700,-0.29252973
5.6720,-0.40376565
5.6740,-0.35441509
5.6760,0.01879398
5.6780,0.31180742
5.6800,0.26490650
5.6820,0.26011005
5.6840,0.19240344
5.6860,-0.08580091
5.6880,-0.26671901
5.6900,-0.20348649
5.6920,-0.30699578
5.6940,0.12987325
5.6960,0.05336248
5.6980,0.61157030
5.7000,0.30026248
5.7020,-0.18190627
5.7040,-0.45702472
5.7060,-0.20944253
5.7080,0.02255069
5.7100,0.16671717
5.7120,-0.20228261
5.7140,-0.46960303
5.7160,-0.52013385
5.7180,-0.02502755
5.7200,-0.40719432
5.7220,-0.07006161
5.7240,-0.20246632
5.7260,-0.29783681
5.7280,-0.27553371
5.7300,0.00716763
5.7320,0.08976471
5.7340,-0.07223596
5.7360,0.25197753
5.7380,-0.24032941
5.7400,-0.13513872
5.7420,0.02389748
5.7440,0.04502905
5.7460,-0.44996676
5.7480,-0.33182114
5.7500,0.02071628
5.7520,-0.19270259
5.7540,-0.34216383
5.7560,-0.28316677
5.7580,-0.07811140
5.7600,-0.11543082
5.7620,-0.27709538
5.7640,-0.52658933
5.7660,-0.13474873
5.7680,0.69830412
5.7700,0.09680087
5.7720,0.57615447
5.7740,0.45726705
5.7760,-0.07252210
5.7780,0.01497848
5.7800,-0.04366383
5.7820,-0.00840422
5.7840,0.09009241
5.7860,-0.07090215
5.7880,0.11058338
5.7900,0.00267854
5.7920,0.05772223
5.7940,0.55214208
5.7960,0.04150185
5.7980,0.22544530
5.8000,0.00369143
5.8020,-0.14808823
5.8040,0.02595411
5.8060,0.05191126
5.8080,-0.25018552
5.8100,-0.05557625
5.8120,-0.15330014
5.8140,-0.19412494
5.8160,0.16322881
5.8180,-0.19337927
5.8200,0.51272607
5.8220,0.29115835
5.8240,0.03082052
5.8260,0.16892932
5.8280,-0.22471541
5.8300,-0.36686522
5.8320,-0.22938825
5.8340,-0.20411666
5.8360,-0.40684721
5.8380,0.13872422
5.8400,0.04353797
5.8420,0.12901227
5.8440,0.21147490
5.8460,0.03554007
5.8480,0.17875054
5.8500,-0.21175376
5.8520,-0.31435731
5.8540,-0.30664024
5.8560,-0.45503595
5.8580,-0.50255036
5.8600,-0.53868157
5.8620,-0.46713242
5.8640,-0.10791156
5.8660,-0.15408316
5.8680,-0.24242151
5.8700,0.20074552
5.8720,-0.27505469
5.8740,-0.08352768
5.8760,0.00386481
5.8780,-0.02601080
5.8800,0.18819176
5.8820,0.16807115
5.8840,-0.00470436
5.8860,0.11898246
5.8880,-0.36175075
5.8900,-0.03740173
5.8920,0.10922553
5.8940,0.30772710
5.8960,0.01265741
5.8980,-0.08302765
5.9000,0.16815498
5.9020,-0.12100980
5.9040,0.00727894
5.9060,0.08391134
5.9080,-0.07311942
5.9100,-0.02138259
5.9120,-0.31983274
5.9140,-0.21393996
5.9160,-0.18287678
5.9180,-0.10727168
5.9200,0.06792071
5.9220,0.06196951
5.9240,0.21257840
5.9260,0.56476462
5.9280,0.32741779
5.9300,0.08663815
5.9320,0.39420992
5.9340,-0.19423085
5.9360,-0.25542104
5.9380,-0.36719972
5.9400,-0.47654012
5.9420,-0.14267494
5.9440,-0.00281244
5.9460,-0.20695090
5.9480,-0.07890125
5.9500,0.10046881
5.9520,-0.02848895
5.9540,-0.15055290
5.9560,-0.13118656
5.9580,-0.21085721
5.9600,-0.07628554
5.9620,0.26836884
5.9640,0.29393989
5.9660,0.47832000
5.9680,0.57025629
5.9700,-0.45400578
5.9720,-0.05424761
5.9740,-0.09598379
5.9760,0.23668483
5.9780,-0.22552860
5.9800,-0.11636323
5.9820,-0.18768722
5.9840,0.05296642
5.9860,0.09507831
5.9880,0.19988789
5.9900,0.33649889
5.9920,-0.00234681
5.9940,-0.34967089
5.9960,-0.08310807
5.9980,-0.07851612
6.0000,0.45581162
6.0020,-0.01734994
6.0040,0.23786922
6.0060,0.34318271
6.0080,-0.01309529
6.0100,-0.06831037
6.0120,-0.13158934
6.0140,0.24026355
6.0160,0.08695327
6.0180,0.30095086
6.0200,0.36522502
6.0220,0.28343904
6.0240,0.46493956
6.0260,0.06062032
6.0280,0.09176945
6.0300,0.13941954
6.0320,-0.30838844
6.0340,-0.33852199
6.0360,-0.34788692
6.0380,-0.29989967
6.0400,-0.12432718
6.0420,0.07656438
6.0440,-0.01989885
6.0460,-0.22771251
6.0480,-0.50774294
6.0500,-0.27188861
6.0520,-0.19574608
6.0540,0.02142551
6.0560,0.50996190
6.0580,0.44198599
6.0600,0.26403007
6.0620,0.02341122
6.0640,-0.09243225
6.0660,0.04585600
6.0680,-0.09208298
6.0700,-0.08885460
6.0720,-0.06232913
6.0740,-0.13390326
6.0760,-0.05875174
6.0780,-0.23658106
6.0800,-0.45901099
6.0820,-0.25334415
6.0840,0.14443232
6.0860,0.15338653
6.0880,0.37440863
6.0900,0.00557641
6.0920,-0.09019421
6.0940,0.17512168
6.0960,-0.14905080
6.0980,-0.23188719
6.1000,0.16877596
6.1020,0.05711567
6.1040,0.19473094
6.1060,0.32447565
6.1080,0.22137383
6.1100,0.21500890
6.1120,-0.22709039
6.1140,0.08277190
6.1160,0.35692477
6.1180,-0.20537515
6.1200,-0.10599518
6.1220,-0.43837184
6.1240,-0.15013508
6.1260,-0.07948504
6.1280,-0.05931483
6.1300,-0.06173844
6.1320,0.01900326
6.1340,0.01173908
6.1360,-0.07420208
6.1380,-0.04689975
6.1400,0.03449240
6.1420,0.18809734
6.1440,0.39579827
6.1460,0.47018602
6.1480,0.03002529
6.1500,-0.39081287
6.1520,-0.34245124
6.1540,-0.26555401
6.1560,0.01672330
6.1580,0.28759050
6.1600,0.39100909
6.1620,0.57878786
6.1640,0.45028263
6.1660,0.05992971
6.1680,-0.28919575
6.1700,-0.17155746
6.1720,-0.04214432
6.1740,0.01770973
6.1760,0.17466906
6.1780,0.05907035
6.1800,-0.38178825
6.1820,-0.30239376
6.1840,0.06858001
6.1860,0.07248088
6.1880,0.07214528
6.1900,0.11906109
6.1920,0.37237722
6.1940,-0.01151887
6.1960,-0.06158213
6.1980,0.02892729
6.2000,0.16741332
6.2020,0.19332756
6.2040,0.11513580
6.2060,-0.16357182
6.2080,0.34118405
6.2100,0.08475010
6.2120,-0.04352866
6.2140,-0.09522069
6.2160,-0.07034432
6.2180,-0.02501642
6.2200,-0.29917520
6.2220,-0.01047596
6.2240,0.00365279
6.2260,0.27197388
6.2280,0.36076236
6.2300,0.30979601
6.2320,-0.02954532
6.2340,-0.20976354
6.2360,-0.15716049
6.2380,-0.28559798
6.2400,-0.05704815
6.2420,-0.15553442
6.2440,-0.37840638
6.2460,-0.48385838
6.2480,-0.24481076
6.2500,-0.08037867
6.2520,-0.14814614
6.2540,0.34397376
6.2560,0.16762032
6.2580,0.05466864
6.2600,-0.06026181
6.2620,-0.00834990
6.2640,-0.07090068
6.2660,0.05017255
6.2680,0.05912839
6.2700,0.10077076
6.2720,0.03852914
6.2740,-0.17846310
6.2760,-0.13813086
6.2780,-0.11234086
6.2800,0.07582597
6.2820,0.31648263
6.2840,-0.09325203
6.2860,-0.21057920
6.2880,-0.35947230
6.2900,0.00653956
6.2920,-0.10114536
6.2940,0.05203764
6.2960,0.19047965
6.2980,0.03165918
6.3000,0.13855299
6.3020,-0.24066412
6.3040,-0.15290673
6.3060,-0.21951920
6.3080,-0.07714694
6.3100,0.04527019
6.3120,0.28744212
6.3140,0.24978167
6.3160,-0.21108302
6.3180,-0.04639740
6.3200,-0.28091183
6.3220,0.04693877
6.3240,0.03044538
6.3260,-0.07548547
6.3280,0.33370072
6.3300,0.04838360
6.3320,-0.06813588
6.3340,0.04524422
6.3360,0.13878125
6.3380,0.26166701
6.3400,0.10874980
6.3420,0.05435822
6.3440,0.00078376
6.3460,0.03116173
6.3480,0.32018507
6.3500,0.21613765
6.3520,0.04000666
6.3540,0.16047634
6.3560,0.05216144
6.3580,0.27288169
6.3600,-0.05236985
6.3620,-0.23853014
6.3640,-0.02669853
6.3660,-0.14109367
6.3680,0.07972736
6.3700,-0.12419893
6.3720,0.03079645
6.3740,0.04521172
6.3760,-0.16445246
6.3780,-0.00903826
6.3800,-0.06912186
6.3820,-0.08280157
6.3840,-0.01749166
6.3860,-0.19843094
6.3880,-0.03961314
6.3900,-0.13248847
6.3920,-0.44177130
6.3940,-0.42883033
6.3960,-0.22387767
6.3980,0.00134156
6.4000,0.21342866
6.4020,0.16189136
6.4040,-0.02938906
6.4060,-0.00236924
6.4080,-0.10435583
6.4100,-0.10530601
6.4120,-0.34300759
6.4140,-0.47700918
6.4160,-0.48879877
6.4180,-0.41028622
6.4200,-0.41699445
6.4220,-0.38262632
6.4240,-0.20904092
6.4260,0.00626838
6.4280,0.06126131
6.4300,0.14619522
6.4320,0.21319988
6.4340,0.11608578
6.4360,0.12514047
6.4380,0.17192793
6.4400,0.15978700
6.4420,0.12082658
6.4440,-0.01632874
6.4460,-0.05755255
6.4480,-0.13251159
6.4500,-0.02381494
6.4520,0.03844404
6.4540,0.02169771
6.4560,0.11464971
6.4580,0.15566327
6.4600,-0.00446608
6.4620,0.04316362
6.4640,0.07554945
6.4660,-0.02511645
6.4680,-0.06998282
6.4700,-0.15946874
6.4720,-0.06306836
6.4740,-0.10104444
6.4760,0.00442085
6.4780,0.06816404
6.4800,-0.13542610
6.4820,0.00981422
6.4840,0.26647964
6.4860,0.49244368
6.4880,0.49991685
6.4900,0.21297850
6.4920,-0.00157209
6.4940,-0.34172782
6.4960,-0.09835043
6.4980,-0.17083585
6.5000,-0.16249534
6.5020,0.16595583
6.5040,0.18329160
6.5060,0.21595146
6.5080,-0.04729478
6.5100,0.11539105
6.5120,0.02897197
6.5140,0.06777530
6.5160,0.11107389
6.5180,0.13333972
6.5200,-0.36966792
6.5220,0.34130758
6.5240,0.32241905
6.5260,-0.15667944
6.5280,0.41181615
6.5300,-0.21797784
6.5320,-0.04959512
6.5340,-0.19270182
6.5360,0.29336360
6.5380,-0.03996876
6.5400,-0.10954555
6.5420,-0.05283736
6.5440,-0.07203985
6.5460,0.05770732
6.5480,-0.22631660
6.5500,0.01575558
6.5520,-0.54743052
6.5540,-0.04672910
6.5560,0.06326580
6.5580,0.16004261
6.5600,0.41003025
6.5620,0.19791898
6.5640,-0.19413322
6.5660,0.04605542
6.5680,-0.10822726
6.5700,0.05377478
6.5720,0.42707902
6.5740,0.79609787
6.5760,0.76848954
6.5780,0.40419412
6.5800,0.02680880
6.5820,-0.06184904
6.5840,-0.19118679
6.5860,-0.08691649
6.5880,0.03743520
6.5900,0.07129671
6.5920,0.30602202
6.5940,0.32972869
6.5960,0.15840341
6.5980,0.09359032
6.6000,0.20084694
6.6020,-0.04327389
6.6040,0.12078352
6.6060,-0.13988408
6.6080,0.38946867
6.6100,0.25455311
6.6120,0.23471774
6.6140,0.14463152
6.6160,0.46261373
6.6180,0.15443273
6.6200,-0.25644678
6.6220,-0.31087452
6.6240,-0.09008365
6.6260,-0.06373352
6.6280,0.08641457
6.6300,-0.05122577
6.6320,0.14958517
6.6340,-0.30226168
6.6360,-0.28054848
6.6380,-0.43664822
6.6400,0.24886566
6.6420,0.07150006
6.6440,-0.04019770
6.6460,0.10615927
6.6480,-0.03341538
6.6500,0.03377785
6.6520,0.14768784
6.6540,0.12296558
6.6560,-0.06059696
6.6580,-0.14529052
6.6600,-0.03355626
6.6620,0.02606947
6.6640,0.46441573
6.6660,0.00034308
6.6680,-0.16177350
6.6700,-0.06018516
6.6720,-0.07086173
6.6740,-0.11380608
6.6760,-0.07949711
6.6780,0.00872224
6.6800,-0.06015192
6.6820,-0.04078417
6.6840,-0.13213618
6.6860,-0.09249536
6.6880,0.08606789
6.6900,0.13935085
6.6920,-0.10292997
6.6940,-0.08649498
6.6960,-0.01715149
6.6980,0.00940362
6.7000,-0.19032073
6.7020,-0.04776571
6.7040,0.11851513
6.7060,0.03861661
6.7080,0.07949664
6.7100,0.23743585
6.7120,-0.23913935
6.7140,-0.04050430
6.7160,0.01767417
6.7180,0.08046476
6.7200,0.02570914
6.7220,0.15896523
6.7240,-0.03855345
6.7260,0.02059464
6.7280,0.01577378
6.7300,0.05159537
6.7320,-0.20414564
6.7340,-0.16522169
6.7360,0.35796532
6.7380,0.49759984
6.7400,-0.16583423
6.7420,0.18656135
6.7440,-0.21663861
6.7460,0.10459733
6.7480,-0.05963785
6.7500,-0.30782941
6.7520,-0.03341301
6.7540,0.45851389
6.7560,0.22862229
6.7580,-0.03769800
6.7600,0.09865196
6.7620,-0.18299288
6.7640,-0.24462603
6.7660,-0.05284303
6.7680,-0.00841742
6.7700,0.14430246
6.7720,0.04304936
6.7740,-0.04808053
6.7760,0.19542386
6.7780,0.16681999
6.7800,-0.03002683
6.7820,-0.31649929
6.7840,-0.16919820
6.7860,0.42577735
6.7880,0.17376618
6.7900,0.08756681
6.7920,0.23983172
6.7940,-0.07231782
6.7960,-0.00025301
6.7980,-0.42258409
6.8000,0.10822953
6.8020,-0.04689493
6.8040,0.05276014
6.8060,-0.01823612
6.8080,-0.02975061
6.8100,-0.00854190
6.8120,-0.02896596
6.8140,-0.08589049
6.8160,-0.27038026
6.8180,-0.18222852
6.8200,-0.19588481
6.8220,-0.11162668
6.8240,0.49243918
6.8260,0.15730748
6.8280,0.43488184
6.8300,-0.15793242
6.8320,-0.21214519
6.8340,-0.29535112
6.8360,-0.28148130
6.8380,-0.35142028
6.8400,-0.11673941
6.8420,-0.13709162
6.8440,-0.05106630
6.8460,-0.21035205
6.8480,0.03923827
6.8500,-0.22938150
6.8520,0.21862775
6.8540,0.32059485
6.8560,0.08478028
6.8580,0.07451695
6.8600,-0.22362748
6.8620,-0.06771564
6.8640,0.11742588
6.8660,-0.08453435
6.8680,-0.10851850
6.8700,-0.27445629
6.8720,0.03729018
6.8740,-0.15117268
6.8760,-0.17503309
6.8780,0.07258218
6.8800,0.29568383
6.8820,0.44764200
6.8840,0.42572355
6.8860,0.26352888
6.8880,-0.10912910
6.8900,-0.15255247
6.8920,-0.14868432
6.8940,-0.11031728
6.8960,-0.02404754
6.8980,0.11538044
6.9000,0.02325646
6.9020,-0.38239297
6.9040,-0.18625294
6.9060,-0.13975191
6.9080,0.08001711
6.9100,0.08353026
6.9120,0.17299280
6.9140,0.27275544
6.9160,0.26744509
6.9180,0.32777527
6.9200,-0.07380856
6.9220,-0.11339908
6.9240,-0.16515231
6.9260,-0.34825107
6.9280,-0.05427409
6.9300,-0.17607924
6.9320,-0.12704201
6.9340,-0.01127138
6.9360,0.23503792
6.9380,-0.09124403
6.9400,0.14665850
6.9420,0.21175750
6.9440,0.01726629
6.9460,-0.17076990
6.9480,-0.10236587
6.9500,0.05657622
6.9520,-0.04044690
6.9540,-0.23076327
6.9560,-0.21820773
6.9580,-0.13256101
6.9600,0.00224505
6.9620,0.06249711
6.9640,0.07212944
6.9660,0.24708958
6.9680,0.27770945
6.9700,0.04623534
6.9720,0.04522753
6.9740,-0.00365341
6.9760,0.04635021
6.9780,-0.00318504
6.9800,0.16198882
6.9820,0.12680122
6.9840,0.18124597
6.9860,0.01185425
6.9880,0.01193639
6.9900,0.34627584
6.9920,-0.08684213
6.9940,-0.06450001
6.9960,-0.09346327
6.9980,-0.03400483
7.0000,-0.00533468
7.0020,-0.08033929
7.0040,-0.06510925
7.0060,-0.06440091
7.0080,0.02037036
7.0100,-0.00472934
7.0120,0.17010485
7.0140,0.22452711
7.0160,0.06769078
7.0180,-0.03315189
7.0200,-0.14801215
7.0220,0.05668910
7.0240,-0.05655087
7.0260,-0.19407704
7.0280,-0.27173933
7.0300,-0.27750435
7.0320,0.00925449
7.0340,-0.01628921
7.0360,0.44220063
7.0380,0.29382274
7.0400,-0.03182928
7.0420,-0.27362406
7.0440,-0.13874224
7.0460,-0.24154858
7.0480,-0.11354366
7.0500,-0.20842861
7.0520,-0.40735722
7.0540,-0.32098103
7.0560,-0.18276881
7.0580,-0.06403935
7.0600,-0.14345540
7.0620,-0.02044349
7.0640,-0.19212660
7.0660,0.02168925
7.0680,-0.00516588
7.0700,-0.05605897
7.0720,-0.26714629
7.0740,-0.02527182
7.0760,-0.12771526
7.0780,-0.06481686
7.0800,-0.09262510
7.0820,0.22671147
7.0840,0.26643628
7.0860,0.27750152
7.0880,0.02541800
7.0900,0.15073299
7.0920,-0.29385528
7.0940,-0.27050918
7.0960,-0.30034482
7.0980,-0.04614170
7.1000,0.02626794
7.1020,0.06271984
7.1040,0.01968599
7.1060,-0.18812816
7.1080,-0.03088779
7.1100,0.04404207
7.1120,-0.18658639
7.1140,0.30771145
7.1160,0.27062652
7.1180,0.27151954
7.1200,-0.05710700
7.1220,0.12043610
7.1240,0.17414136
7.1260,0.06696153
7.1280,0.03348896
7.1300,-0.22101355
7.1320,-0.33010262
7.1340,-0.47845149
7.1360,-0.41094676
7.1380,-0.10065391
7.1400,0.19698773
7.1420,0.03797961
7.1440,0.09267649
7.1460,0.19686297
7.1480,0.23299238
7.1500,0.23169735
7.1520,0.24844582
7.1540,0.02720045
7.1560,-0.03720170
7.1580,0.06412850
7.1600,-0.05371991
7.1620,0.15020584
7.1640,0.23106560
7.1660,0.18108796
7.1680,0.55155557
7.1700,0.25132975
7.1720,0.04620749
7.1740,-0.16486928
7.1760,-0.18735045
7.1780,0.00711376
7.1800,0.10434871
7.1820,0.01508335
7.1840,0.01610994
7.1860,-0.00245376
7.1880,0.11851832
7.1900,0.27042845
7.1920,0.29787070
7.1940,0.00748278
7.1960,-0.09094366
7.1980,-0.22807401
7.2000,0.04791117
7.2020,-0.27891025
7.2040,-0.14022174
7.2060,-0.19139692
7.2080,-0.14878407
7.2100,-0.04458436
7.2120,-0.07348068
7.2140,-0.08053333
7.2160,0.02428123
7.2180,-0.07331448
7.2200,0.00100661
7.2220,-0.06594249
7.2240,0.17538454
7.2260,0.05383838
7.2280,-0.02459341
7.2300,0.02736406
7.2320,0.07283258
7.2340,0.14450073
7.2360,-0.00738582
7.2380,0.01893014
7.2400,0.00344264
7.2420,0.09492109
7.2440,-0.16395746
7.2460,-0.28901869
7.2480,0.06129429
7.2500,-0.10401542
7.2520,-0.15201756
7.2540,-0.00503747
7.2560,-0.06853078
7.2580,-0.04254033
7.2600,-0.18452556
7.2620,-0.25129962
7.2640,-0.11544642
7.2660,0.04101329
7.2680,0.17888732
7.2700,0.04269719
7.2720,-0.03650026
7.2740,-0.10667834
7.2760,-0.36967480
7.2780,-0.18658149
7.2800,-0.10004357
7.2820,-0.06816069
7.2840,-0.18325686
7.2860,-0.08320763
7.2880,-0.07698895
7.2900,-0.14601529
7.2920,-0.08224843
7.2940,-0.15201513
7.2960,-0.06879632
7.2980,-0.35571727
7.3000,-0.35048980
7.3020,-0.37937811
7.3040,-0.35704428
7.3060,-0.23689413
7.3080,-0.20311233
7.3100,-0.02626431
7.3120,-0.10604441
7.3140,-0.21813291
7.3160,0.03518184
7.3180,0.06263120
7.3200,0.21222112
7.3220,0.05047137
7.3240,0.11191525
7.3260,0.01632059
7.3280,-0.21670376
7.3300,-0.10303216
7.3320,-0.05133416
7.3340,-0.04133129
7.3360,-0.07487627
7.3380,-0.10888116
7.3400,-0.11861052
7.3420,-0.15800597
7.3440,-0.16342926
7.3460,-0.21347944
7.3480,0.00116589
7.3500,0.10212055
7.3520,-0.14077102
7.3540,-0.33670005
7.3560,-0.26719761
7.3580,-0.32871658
7.3600,-0.18884176
7.3620,0.07003940
7.3640,0.17368299
7.3660,0.28241602
7.3680,0.07119517
7.3700,-0.01328884
7.3720,0.02725471
7.3740,-0.01036876
7.3760,0.04243340
7.3780,0.18418951
7.3800,0.18128920
7.3820,0.15046071
7.3840,-0.02689642
7.3860,-0.34710088
7.3880,-0.44643092
7.3900,-0.45701739
7.3920,0.14130105
7.3940,0.02425069
7.3960,0.10191307
7.3980,0.11650226
7.4000,0.10446604
7.4020,0.00174291
7.4040,-0.11550508
7.4060,0.05082053
7.4080,0.16784178
7.4100,0.05303949
7.4120,0.14516595
7.4140,0.09673508
7.4160,0.03398370
7.4180,-0.16564578
7.4200,-0.25182301
7.4220,-0.43919718
7.4240,0.03558153
7.4260,-0.13521670
7.4280,-0.01486691
7.4300,0.06581616
7.4320,0.19178906
7.4340,0.09215503
7.4360,0.11610711
7.4380,0.13624598
7.4400,0.03210731
7.4420,0.02299583
7.4440,0.05482314
7.4460,-0.02775148
7.4480,0.05093437
7.4500,-0.05479569
7.4520,0.02955012
7.4540,0.09746987
7.4560,0.28952157
7.4580,0.08618097
7.4600,-0.08321458
7.4620,-0.06806410
7.4640,-0.05000639
7.4660,-0.01549296
7.4680,-0.03962438
7.4700,-0.10847566
7.4720,-0.10589890
7.4740,-0.18627541
7.4760,-0.07615539
7.4780,0.03399390
7.4800,-0.01096008
7.4820,0.10187016
7.4840,0.18015939
7.4860,0.10781214
7.4880,0.28897637
7.4900,0.27353689
7.4920,-0.11998698
7.4940,-0.10757235
7.4960,0.29609910
7.4980,-0.07235034
7.5000,0.11429142
7.5020,-0.06077288
7.5040,0.04982838
7.5060,0.06042992
7.5080,-0.09251748
7.5100,0.04171220
7.5120,0.19902688
7.5140,-0.04650711
7.5160,-0.03955098
7.5180,0.03939307
7.5200,-0.00938867
7.5220,-0.01443992
7.5240,0.06802882
7.5260,-0.31415811
7.5280,0.09466986
7.5300,-0.09090384
7.5320,-0.14434735
7.5340,-0.19806522
7.5360,-0.22687815
7.5380,-0.13829139
7.5400,-0.04692540
7.5420,0.03452493
7.5440,0.11396090
7.5460,0.13503948
7.5480,0.21006690
7.5500,0.26116678
7.5520,0.09658349
7.5540,0.01066785
7.5560,-0.01490415
7.5580,-0.03572715
7.5600,-0.10784093
7.5620,-0.18667735
7.5640,-0.22859335
7.5660,-0.20002483
7.5680,-0.28444937
7.5700,-0.01363749
7.5720,0.14763297
7.5740,0.10126690
7.5760,-0.03545799
7.5780,-0.18400374
7.5800,-0.11307814
7.5820,-0.02592363
7.5840,-0.08745863
7.5860,0.11084956
7.5880,0.04810996
7.5900,-0.00912114
7.5920,0.09325412
7.5940,0.04951832
7.5960,0.00223610
7.5980,0.03990581
7.6000,-0.00952213
7.6020,-0.13924693
7.6040,-0.11435509
7.6060,-0.12949270
7.6080,-0.17831253
7.6100,-0.16971038
7.6120,-0.22647598
7.6140,-0.31888014
7.6160,-0.03368573
7.6180,-0.04517559
7.6200,0.12918474
7.6220,0.08376256
7.6240,0.14696786
7.6260,0.09200412
7.6280,-0.13460495
7.6300,-0.19162524
7.6320,0.02824816
7.6340,0.22318010
7.6360,0.17933525
7.6380,0.15126626
7.6400,0.09457371
7.6420,0.04096256
7.6440,-0.02542003
7.6460,-0.22031358
7.6480,-0.20447193
7.6500,-0.16902971
7.6520,0.00702066
7.6540,0.07894373
7.6560,0.19918096
7.6580,-0.03187226
7.6600,-0.07265446
7.6620,-0.28482500
7.6640,-0.12228267
7.6660,-0.05182589
7.6680,-0.14195120
7.6700,-0.09863835
7.6720,-0.06651544
7.6740,-0.22172764
7.6760,-0.09564351
7.6780,-0.02942418
7.6800,-0.06664520
7.6820,-0.01866003
7.6840,0.11880352
7.6860,0.01912448
7.6880,0.09169268
7.6900,-0.11761513
7.6920,0.02890920
7.6940,-0.03213675
7.6960,-0.01267815
7.6980,0.02163927
7.7000,0.07962359
7.7020,-0.01111689
7.7040,0.07914554
7.7060,-0.07354675
7.7080,0.02685212
7.7100,0.03075642
7.7120,0.15682872
7.7140,0.20361306
7.7160,0.11507385
7.7180,0.06668118
7.7200,0.01722009
7.7220,-0.27097332
7.7240,-0.18322898
7.7260,-0.01902874
7.7280,0.08090941
7.7300,0.06099943
7.7320,0.09637848
7.7340,0.02357034
7.7360,-0.03628552
7.7380,-0.13651533
7.7400,-0.18429686
7.7420,-0.08144660
7.7440,0.01423178
7.7460,-0.05470512
7.7480,-0.04331104
7.7500,0.00516775
7.7520,-0.08699477
7.7540,0.08273666
7.7560,0.09709452
7.7580,0.03288706
7.7600,0.02398520
7.7620,-0.03882220
7.7640,-0.03775134
7.7660,-0.03630814
7.7680,-0.11967526
7.7700,-0.04244113
7.7720,0.03743219
7.7740,0.10865545
7.7760,0.06348452
7.7780,0.05756571
7.7800,0.08249785
7.7820,0.12235917
7.7840,0.10171356
7.7860,0.12711972
7.7880,0.09390956
7.7900,0.03678369
7.7920,0.01109973
7.7940,0.09757067
7.7960,0.14778186
7.7980,0.11805985
7.8000,0.09774905
7.8020,0.19293666
7.8040,0.14993280
7.8060,0.13389470
7.8080,0.00939087
7.8100,-0.07024560
7.8120,-0.08980697
7.8140,-0.14367108
7.8160,-0.16826256
7.8180,-0.12244905
7.8200,-0.03494467
7.8220,-0.05182909
7.8240,-0.09927135
7.8260,-0.05827220
7.8280,0.17752303
7.8300,0.12688972
7.8320,0.16425227
7.8340,0.24344532
7.8360,0.16300113
7.8380,0.17741191
7.8400,-0.07409497
7.8420,-0.17611428
7.8440,0.16278975
7.8460,-0.05107418
7.8480,-0.06237327
7.8500,-0.19043154
7.8520,-0.19739781
7.8540,-0.20860919
7.8560,-0.19183566
7.8580,-0.23351894
7.8600,-0.13369037
7.8620,-0.02626733
7.8640,-0.16979119
7.8660,-0.22918449
7.8680,-0.16119845
7.8700,-0.16880183
7.8720,-0.12178242
7.8740,-0.21727926
7.8760,0.13849923
7.8780,-0.01774663
7.8800,-0.23285750
7.8820,-0.37435344
7.8840,-0.43144953
7.8860,-0.42603260
7.8880,-0.04756908
7.8900,0.00087886
7.8920,0.15209483
7.8940,0.23610939
7.8960,0.19654809
7.8980,0.26518559
7.9000,0.17455666
7.9020,0.10852259
7.9040,0.02771504
7.9060,-0.04453401
7.9080,-0.11344147
7.9100,-0.11021056
7.9120,0.15134320
7.9140,0.06491560
7.9160,0.15135027
7.9180,0.12734643
7.9200,0.15445055
7.9220,0.18132620
7.9240,0.15499926
7.9260,0.16247696
7.9280,0.33428010
7.9300,0.38962728
7.9320,0.25572541
7.9340,0.20857798
7.9360,0.05134935
7.9380,0.09638430
7.9400,-0.04741041
7.9420,-0.06153242
7.9440,-0.05555584
7.9460,0.17387412
7.9480,0.01668954
7.9500,-0.03026132
7.9520,-0.12110549
7.9540,-0.21093507
7.9560,-0.24127656
7.9580,-0.34014159
7.9600,-0.31141886
7.9620,-0.44163701
7.9640,-0.51250070
7.9660,-0.12994871
7.9680,-0.17234521
7.9700,0.02875578
7.9720,0.16435453
7.9740,0.04113317
7.9760,-0.05065746
7.9780,-0.11381236
7.9800,-0.17328639
7.9820,-0.19917703
7.9840,-0.02568600
7.9860,-0.04495632
7.9880,-0.07107327
7.9900,-0.19528560
7.9920,-0.11023461
7.9940,-0.22559008
7.9960,-0.18943721
7.9980,0.06960972
8.0000,0.07354292
8.0020,0.23605452
8.0040,0.21444416
8.0060,0.15237759
8.0080,0.04059820
8.0100,0.04574639
8.0120,0.13100427
8.0140,0.02743946
8.0160,0.16087098
8.0180,0.22207005
8.0200,0.27578866
8.0220,0.21284819
8.0240,0.15063110
8.0260,0.21283056
8.0280,0.09448767
8.0300,0.05288767
8.0320,-0.13703749
8.0340,-0.07211159
8.0360,-0.16293468
8.0380,-0.20595437
8.0400,-0.26588050
8.0420,-0.17891435
8.0440,-0.10838438
8.0460,-0.11751608
8.0480,0.10569835
8.0500,0.05041597
8.0520,-0.00446488
8.0540,-0.05342760
8.0560,0.04590606
8.0580,0.11592580
8.0600,0.05332939
8.0620,0.00342301
8.0640,-0.02576420
8.0660,-0.08428337
8.0680,-0.12996468
8.0700,-0.10482698
8.0720,0.05613670
8.0740,0.06205971
8.0760,0.05727550
8.0780,-0.08355459
8.0800,-0.09827055
8.0820,-0.00933645
8.0840,-0.10185201
8.0860,-0.11909907
8.0880,-0.03304663
8.0900,0.02054290
8.0920,-0.09798871
8.0940,-0.13112299
8.0960,-0.06234692
8.0980,-0.06607964
8.1000,-0.05182029
8.1020,-0.05241302
8.1040,-0.13268465
8.1060,-0.12198190
8.1080,-0.20485018
8.1100,-0.16441891
8.1120,-0.25166383
8.1140,-0.13198552
8.1160,-0.14675535
8.1180,-0.09283260
8.1200,-0.09757856
8.1220,0.00393495
8.1240,-0.02821648
8.1260,-0.03181267
8.1280,-0.00894154
8.1300,-0.09464730
8.1320,-0.09379423
8.1340,-0.04176916
8.1360,-0.07261135
8.1380,-0.14225200
8.1400,-0.08509156
8.1420,0.01149763
8.1440,-0.09149306
8.1460,-0.15215133
8.1480,-0.05738622
8.1500,0.00700716
8.1520,-0.01885527
8.1540,-0.05386174
8.1560,-0.08246091
8.1580,-0.13667531
8.1600,-0.19002385
8.1620,-0.18186857
8.1640,-0.06645633
8.1660,0.07015231
8.1680,0.29352137
8.1700,0.19920915
8.1720,0.26748338
8.1740,0.22751896
8.1760,0.08609889
8.1780,-0.11746040
8.1800,-0.06188711
8.1820,-0.04703725
8.1840,-0.01694507
8.1860,-0.01058186
8.1880,0.01636820
8.1900,0.00510385
